MR32 ASCII
Name	Post fatigue 
Frequency	1500
Date	22-05-2023 12:05:53
"Time,s"	"RT RECTUS FEM.,uV"	"RT BICEPS FEM.,uV"	"RT LAT. GASTRO,uV"	"LT RECTUS FEM.,uV"	"LT TIB.ANT.,uV"	"LT BICEPS FEM.,uV"	"LT LAT. GASTRO,uV"	"RT TIB.ANT.,uV"
0.0000	0.230104	-15.1413	-10.9558	-0.778598	-9.5296	2.04124	3.33449	-0.647129
0.0007	-1.29483	-13.2844	-14.3233	-1.0793	-1.29248	0.828866	6.44163	-3.08515
0.0013	-1.29483	-11.1703	-12.7967	0.139611	-2.21843	2.04124	9.16984	-4.30416
0.0020	1.45083	-9.02765	-10.9558	1.35852	-2.81644	3.26598	9.16984	-4.00317
0.0027	2.67155	-9.62759	-5.16359	-0.472529	1.4468	0.519587	5.83536	-4.00317
0.0033	1.14662	-8.7134	6.42081	-0.472529	-3.12509	-1.62062	1.51568	-2.16713
0.0040	2.06314	-1.39986	11.8987	0.75175	-16.5514	1.12577	-1.21254	-3.08515
0.0047	3.58807	1.34272	1.84093	-1.69144	-22.3579	2.04124	-1.21254	-10.1133
0.0053	0.230104	-8.7134	-11.2701	-1.99751	-20.5253	-0.395876	-2.42508	-13.4693
0.0060	-1.29483	-15.1413	-10.0578	-0.472529	-18.6927	-0.395876	-8.56357	-9.19525
0.0067	1.75503	-11.456	-5.47789	-1.69144	-15.6447	-0.0865979	-17.6576	-4.00317
0.0073	2.06314	-9.02765	-14.6377	-1.38537	-10.4555	-1.00206	-19.2491	-3.70218
0.0080	0.230104	-11.1703	-20.7442	1.05245	-6.17302	-0.705154	-11.2918	-3.70218
0.0087	1.14662	-17.8839	-6.1065	-0.778598	-5.88366	-1.31134	-0.606271	-0.346139
0.0093	0.842416	-30.0827	12.5273	-2.60965	-9.83825	-3.14227	9.47298	4.22891
0.0100	-0.686413	-36.7963	17.6909	-0.472529	-10.4555	-1.31134	11.5949	9.421
0.0107	0.53431	-36.1963	15.2663	-0.778598	-5.57501	0.519587	-3.94076	14.3121
0.0113	1.14662	-32.2253	13.7396	-1.99751	-4.05104	-1.31134	-21.9773	13.996
0.0120	-0.0741014	-21.5407	15.5806	-0.778598	-6.17302	0.519587	-18.3397	6.06495
0.0127	-0.686413	-14.1986	14.952	-1.38537	-5.88366	3.26598	-3.63762	0.872872
0.0133	-0.990619	-16.9697	7.94744	-2.60965	-4.95771	-0.395876	-4.54703	3.32594
0.0140	-1.29483	-10.5418	1.84093	-0.778598	-6.79032	-1.91753	-17.3545	6.06495
0.0147	-1.59903	3.17111	1.84093	-0.166459	-10.4555	2.35051	-21.0679	5.14693
0.0153	-1.90714	4.0853	2.15524	-1.38537	-14.1208	1.43505	-11.2918	2.40792
0.0160	-0.0741014	4.99949	-1.84093	0.139611	-15.3361	-1.00206	1.51568	-2.16713
0.0167	2.06314	11.7131	-8.84545	1.97066	-13.8121	2.65979	6.44163	-4.92119
0.0173	1.75503	4.0853	-10.0578	1.97066	-12.5968	2.65979	5.22908	-6.75723
0.0180	-0.378307	-8.42771	-3.95127	2.27673	-10.4555	-1.62062	3.94076	-11.6333
0.0187	-1.59903	-6.28507	-5.47789	2.5828	-8.62294	-0.0865979	4.92595	-15.2903
0.0193	-3.43207	6.85645	-15.5357	1.66459	-10.4555	2.65979	9.77612	-13.1533
0.0200	-2.51555	29.1113	-13.7396	1.05245	-11.0729	1.74433	14.3231	-9.79723
0.0207	-0.0741014	46.2239	-1.52663	1.35852	-7.71627	1.43505	13.4137	-5.52317
0.0213	-0.0741014	44.6812	2.46954	1.66459	-5.88366	0.828866	9.77612	1.4899
0.0220	-0.686413	56.5942	-4.57988	-0.166459	-2.21843	-1.62062	11.2918	1.4899
0.0227	-0.686413	98.39	-18.5889	-1.99751	5.11203	-2.2268	15.8388	-6.75723
0.0233	-0.686413	122.188	-31.7448	-1.99751	10.6099	-3.14227	14.02	-12.2503
0.0240	-0.686413	98.39	-28.3773	-2.60965	14.2558	-6.19794	3.94076	-15.6063
0.0247	-2.21134	61.7651	-13.7396	-3.52249	15.1818	-3.74845	1.51568	-20.4824
0.0253	-4.04048	37.6533	-10.9558	-0.472529	10.3012	2.35051	14.3231	-15.9073
0.0260	-3.12786	26.683	-15.85	0.44568	6.32734	2.35051	22.2804	-2.48317
0.0267	-0.686413	26.9973	-11.2701	-3.52249	9.68392	0.519587	7.35103	4.22891
0.0273	0.230104	30.0255	0.628611	-4.13462	13.3492	2.35051	-16.142	1.4899
0.0280	1.75503	25.1689	4.26557	0.139611	12.4425	2.65979	-25.9181	-5.52317
0.0287	3.58807	18.141	-6.37591	-0.472529	5.71004	-0.0865979	-18.3397	-15.6063
0.0293	3.58807	14.7699	-17.6909	-2.91035	-2.21843	2.04124	-6.06271	-20.7834
0.0300	1.75503	11.4274	-14.3233	-1.0793	-3.12509	5.70309	-4.54703	-18.6463
0.0307	-0.990619	8.37058	-0.898015	0.139611	-0.385814	3.26598	-5.75957	-11.3323
0.0313	-2.21134	10.5132	11.8987	-2.60965	-1.90978	-1.91753	-1.21254	-0.030099
0.0320	-1.59903	14.17	24.1117	-3.52249	0.540139	-1.00206	-5.1533	8.20199
0.0327	-0.990619	16.5983	29.9039	-1.69144	8.77726	3.26598	-16.4451	5.46297
0.0333	0.53431	20.2836	27.165	-1.99751	10.6099	2.65979	-13.7169	2.40792
0.0340	2.67155	20.5693	25.6383	-3.52249	6.63599	1.12577	-4.2439	3.32594
0.0347	2.06314	11.1132	23.7974	-1.99751	6.94465	3.26598	-7.35103	1.4899
0.0353	1.45083	-3.22824	15.5806	-1.0793	7.54266	2.35051	-10.6855	1.18891
0.0360	3.28386	-13.9129	11.0007	-1.38537	4.49473	-1.00206	-5.1533	5.14693
0.0367	3.89228	-20.6265	11.8987	-0.472529	6.01869	0.519587	-1.81881	3.62693
0.0373	2.97576	-23.0548	4.26557	-1.38537	13.0405	2.35051	-4.2439	-1.26416
0.0380	2.67155	-25.1974	-4.84928	-4.13462	15.1818	0.210309	-5.75957	-2.16713
0.0387	2.97576	-30.0827	-0.898015	-3.21642	12.4425	0.519587	-2.42508	-1.56515
0.0393	2.97576	-30.9968	3.36756	-0.778598	13.3492	4.49072	2.72822	-0.346139
0.0400	2.06314	-25.5117	-0.314305	-2.60965	19.7537	2.65979	4.54703	3.32594
0.0407	0.53431	-22.1406	0	-3.52249	23.7275	-1.91753	3.63762	6.06495
0.0413	1.14662	-23.0548	3.05325	-0.472529	25.2515	-0.395876	4.2439	6.06495
0.0420	1.45083	-21.5407	2.15524	0.139611	27.3928	3.26598	6.13849	6.36594
0.0427	-2.81975	-17.8839	2.73895	-2.60965	25.2515	2.65979	7.9573	5.46297
0.0433	-5.2612	-15.427	2.46954	-2.60965	19.1556	0.519587	9.77612	5.46297
0.0440	-2.51555	-15.7413	-3.36756	-1.99751	14.5645	0.210309	10.0793	5.76396
0.0447	-0.686413	-20.6265	-6.1065	-3.21642	7.54266	0.519587	7.9573	0.270891
0.0453	-1.59903	-26.7116	-2.42464	-3.21642	-0.385814	-2.53608	2.42508	-6.1402
0.0460	-1.90714	-27.94	-2.42464	-1.38537	2.35346	-4.05773	-1.21254	-6.1402
0.0467	-1.59903	-28.2543	-4.57988	1.05245	10.3012	-2.83299	-0.303135	-5.52317
0.0473	-0.686413	-31.5968	-1.52663	1.97066	10.8992	-4.05773	-4.54703	-8.57822
0.0480	1.14662	-30.6826	9.15976	0.139611	12.7318	-5.88866	-17.0514	-10.7153
0.0487	1.14662	-23.6833	18.6338	-0.778598	19.7537	-3.45155	-23.1899	-11.3323
0.0493	0.230104	-17.2554	15.2663	-0.778598	18.847	-2.53608	-14.9294	-12.2503
0.0500	1.14662	-11.456	1.84093	-0.778598	12.1338	-4.97319	-2.12195	-12.8523
0.0507	1.14662	-4.74237	-0.314305	-0.166459	15.4904	-3.14227	-1.21254	-11.9343
0.0513	0.230104	-4.14244	9.78837	0.139611	24.3448	-0.705154	-16.7482	-11.3323
0.0520	2.97576	-8.11346	14.6377	0.139611	22.5122	-2.53608	-26.8275	-12.2503
0.0527	6.33372	-9.62759	12.8416	0.75175	11.5165	-4.05773	-14.9294	-15.9073
0.0533	5.41721	-14.1986	13.4253	0.139611	5.11203	-1.00206	1.21254	-18.6463
0.0540	2.97576	-29.7684	14.6377	-2.60965	2.97077	1.43505	5.83536	-17.7434
0.0547	2.36735	-52.0518	14.952	-2.60965	1.75545	0.210309	1.51568	-14.9893
0.0553	3.58807	-63.6507	11.315	1.05245	6.01869	-0.705154	-4.85017	-10.4143
0.0560	2.97576	-56.6228	0.314305	2.5828	4.80338	0.828866	-7.0479	-5.83921
0.0567	0.842416	-41.6815	-8.21684	0.75175	-15.9534	2.35051	-3.03135	-4.6202
0.0573	0.53431	-25.1974	-5.47789	0.44568	-39.7581	0.828866	-1.81881	1.4899
0.0580	2.06314	-1.9998	-0.898015	1.35852	-39.7581	0.519587	0	17.3521
0.0587	1.75503	21.4835	-3.95127	1.66459	-26.9298	1.74433	7.35103	28.0372
0.0593	2.06314	41.0244	-10.9558	1.05245	-17.786	1.12577	10.6855	25.2982
0.0600	3.89228	65.1362	-11.8987	1.05245	-12.5968	0.210309	8.56357	21.3252
0.0607	2.97576	72.764	-6.1065	0.139611	-14.7188	2.04124	9.16984	18.8871
0.0613	-0.686413	43.4527	-7.31883	-1.69144	-20.5253	3.57526	9.47298	13.996
0.0620	-1.29483	9.59902	-21.6422	-0.778598	-18.0754	3.26598	6.74476	7.901
0.0627	-0.378307	-1.71411	-34.1695	1.05245	-12.2882	2.65979	3.63762	2.40792
0.0633	-1.90714	-5.97082	-38.4351	-0.778598	-13.1948	2.35051	-3.03135	-0.346139
0.0640	-2.81975	-7.48495	-39.0637	-2.60965	-15.0274	1.43505	-8.56357	0.872872
0.0647	-2.51555	-0.171411	-34.7981	-0.778598	-11.3622	1.12577	-4.85017	1.79089
0.0653	-4.34858	4.0853	-25.0097	0.75175	-6.48167	1.12577	0.909406	2.40792
0.0660	-5.2612	7.77064	-14.3233	-0.472529	-2.52708	1.43505	2.42508	4.22891
0.0667	-4.34858	18.7409	-3.36756	0.139611	-0.385814	2.04124	3.63762	4.84594
0.0673	-4.34858	22.3977	6.73512	2.5828	-0.694465	3.26598	3.03135	5.14693
0.0680	-3.73627	12.0273	13.1559	2.27673	-1.60113	3.26598	0.606271	8.50298
0.0687	0.230104	2.88542	18.9481	-1.69144	-2.21843	1.12577	2.42508	9.72199
0.0693	-0.686413	-0.77135	24.7403	-3.82855	-0.385814	0.519587	3.03135	9.421
0.0700	-4.65279	-2.31405	27.4793	-0.472529	1.4468	2.35051	-2.12195	11.257
0.0707	-2.51555	-1.0856	27.4793	3.49564	-0.385814	2.35051	-4.85017	10.64
0.0713	-2.21134	-0.77135	21.0585	1.05245	-1.90978	-0.705154	-2.42508	5.14693
0.0720	-6.17772	-3.5425	10.1027	-1.69144	0.829499	-1.91753	0.606271	1.4899
0.0727	-5.2612	-5.05663	7.31883	-0.778598	1.75545	0.519587	2.72822	0.571882
0.0733	-2.51555	-5.05663	9.15976	-0.778598	-3.43374	1.43505	3.33449	-3.08515
0.0740	-5.87351	-4.74237	-1.21232	-1.69144	-5.88366	0.519587	1.51568	-6.44119
0.0747	-8.31496	-5.97082	-16.4786	0.139611	-1.29248	0.519587	0	-6.75723
0.0753	-6.79003	-10.856	-19.2175	0.44568	2.35346	-0.0865979	0	-5.83921
0.0760	-7.09424	-24.5975	-17.3766	-2.60965	3.58807	-1.62062	-1.51568	-5.52317
0.0767	-7.09424	-48.995	-18.9032	-0.778598	4.80338	-2.2268	-3.94076	-4.92119
0.0773	-5.2612	-73.4211	-15.85	2.5828	4.80338	-2.2268	-4.2439	-6.1402
0.0780	-5.2612	-79.2205	-6.1065	0.75175	2.35346	-1.00206	-2.12195	-7.97624
0.0787	-5.87351	-68.5359	-2.11034	-0.778598	0.540139	-1.31134	0.606271	-7.6602
0.0793	-5.2612	-54.5087	-6.37591	1.35852	1.75545	-3.14227	0.606271	-6.44119
0.0800	-5.56931	-40.453	-3.05325	1.05245	4.18608	-4.05773	-0.303135	-6.1402
0.0807	-5.2612	-24.8832	8.57605	-0.778598	5.71004	-3.74845	-1.21254	-7.05822
0.0813	-4.34858	-10.5418	9.15976	-0.166459	6.01869	-3.45155	-1.51568	-6.75723
0.0820	-5.87351	-5.05663	-5.16359	0.139611	6.94465	-2.83299	-2.12195	-4.30416
0.0827	-8.61917	-6.88501	-13.7396	-0.166459	7.85131	-3.74845	-1.21254	-2.78416
0.0833	-8.01076	-1.39986	-11.5844	1.35852	4.80338	-6.49484	1.21254	-3.08515
0.0840	-5.2612	15.3984	-14.3233	2.27673	0.540139	-7.1134	2.42508	-2.78416
0.0847	-4.957	16.3126	-27.4344	0.44568	-0.385814	-4.05773	2.72822	-0.030099
0.0853	-7.70265	-8.7134	-41.4883	0.139611	-1.29248	-1.31134	1.51568	0.872872
0.0860	-9.53569	-24.8832	-42.3863	0.44568	-4.05104	-1.00206	-5.1533	-0.030099
0.0867	-8.01076	-18.4838	-34.7981	-1.0793	-5.26636	-1.31134	-12.5043	0.270891
0.0873	-6.79003	-10.5418	-32.0143	-1.69144	-6.79032	-0.395876	-11.5949	0.270891
0.0880	-6.17772	0.428528	-29.2753	-1.38537	-10.4555	-0.0865979	-6.74476	-0.948119
0.0887	-6.17772	26.683	-13.4253	-1.38537	-11.0729	-1.31134	-5.1533	2.70891
0.0893	-7.39844	55.3658	3.99617	-0.472529	-7.09897	-1.31134	-4.54703	10.339
0.0900	-7.70265	73.364	6.42081	0.139611	-5.88366	-0.395876	-3.94076	13.3941
0.0907	-5.2612	81.906	-1.52663	-1.0793	-8.31428	-2.2268	-5.45644	9.72199
0.0913	-4.34858	73.0783	-8.21684	-1.0793	-7.71627	-3.14227	-6.36584	6.06495
0.0920	-4.957	46.5096	-12.7967	0.75175	-4.95771	-1.00206	-7.9573	5.14693
0.0927	-4.34858	21.4835	-19.8461	-0.472529	-4.64905	0.519587	-10.9887	3.62693
0.0933	-2.51555	7.77064	-25.6383	-2.60965	-6.17302	-1.00206	-13.1106	0.571882
0.0940	0.53431	0.428528	-12.7967	-2.30358	-6.17302	-2.83299	-10.3824	0.872872
0.0947	1.75503	-1.0856	22.2708	-1.69144	-5.26636	-3.14227	-2.72822	6.98297
0.0953	-0.378307	8.05632	52.8033	-2.60965	-5.57501	-2.53608	2.42508	10.956
0.0960	-0.0741014	19.3695	55.5423	-3.21642	-5.88366	-2.2268	0.303135	8.50298
0.0967	1.45083	17.2268	35.1124	-3.52249	-5.88366	-1.62062	-3.03135	3.62693
0.0973	0.230104	6.54219	13.7396	-2.60965	-4.05104	-1.31134	-3.94076	1.18891
0.0980	-0.990619	3.17111	5.52279	-0.472529	-2.21843	-1.62062	-4.85017	1.4899
0.0987	0.53431	4.39955	1.84093	-0.472529	0.231488	-1.31134	-2.72822	5.14693
0.0993	0.230104	2.57117	-2.42464	-0.472529	4.18608	-0.395876	-0.606271	6.98297
0.1000	-0.686413	6.85645	-0.898015	1.05245	6.63599	-1.00206	-2.42508	4.22891
0.1007	1.14662	16.9126	0.942916	0.44568	3.27942	-2.53608	-1.51568	2.70891
0.1013	3.28386	15.9984	-4.57988	-0.778598	1.4468	-2.2268	1.51568	6.98297
0.1020	4.50459	5.31375	-5.47789	1.05245	3.89672	-1.00206	4.92595	11.558
0.1027	4.19648	-0.77135	-1.84093	1.97066	3.89672	-1.31134	12.8075	11.558
0.1033	2.97576	-2.6283	-10.0578	-0.472529	2.35346	0.210309	13.4137	7.901
0.1040	2.97576	-5.97082	-26.5364	-0.778598	4.49473	2.35051	0.909406	2.40792
0.1047	4.50459	-7.79921	-35.6961	-0.778598	5.11203	1.12577	0.303135	-4.00317
0.1053	4.80879	-6.88501	-35.6961	-1.69144	1.13815	-0.705154	8.26044	-9.49624
0.1060	4.80879	-10.2561	-21.9565	0.44568	1.13815	1.12577	-0.303135	-12.2503
0.1067	4.80879	-20.6265	0.314305	0.75175	4.49473	3.26598	-6.36584	-14.3873
0.1073	3.89228	-28.5685	9.47406	-2.60965	3.58807	2.9567	2.12195	-17.7434
0.1080	4.19648	-30.3969	8.26174	-3.52249	2.35346	1.43505	-2.12195	-13.7703
0.1087	6.63793	-32.511	15.5806	-3.52249	3.27942	0.519587	-12.2012	-2.16713
0.1093	6.33372	-34.6536	21.6871	-4.44069	2.35346	1.74433	-4.85017	0.571882
0.1100	4.19648	-33.1395	12.5273	-2.91035	0.231488	2.35051	-2.12195	-10.4143
0.1107	5.113	-28.8542	-3.63696	-3.52249	1.4468	0.519587	-13.7169	-17.7434
0.1113	6.02952	-22.4549	-14.6377	-5.6596	1.4468	-1.00206	-18.6428	-12.5513
0.1120	4.80879	-16.0555	-11.8987	-3.21642	-3.43374	-0.395876	-13.1106	-6.1402
0.1127	4.80879	-6.88501	6.73512	0.44568	-8.62294	0.519587	-2.42508	2.40792
0.1133	4.19648	16.3126	20.7442	-1.38537	-9.83825	1.74433	9.47298	15.8321
0.1140	2.06314	39.796	14.3682	-3.52249	-5.88366	4.49072	9.47298	17.9691
0.1147	1.45083	39.5103	3.99617	-2.30358	-1.60113	5.40618	2.72822	6.98297
0.1153	2.06314	25.4546	6.42081	0.139611	-2.52708	2.9567	-2.42508	3.32594
0.1160	1.14662	18.7409	16.4786	1.35852	-5.88366	0.828866	-21.371	7.6
0.1167	-0.686413	13.2558	23.2137	-1.38537	-6.79032	2.35051	-45.1672	11.257
0.1173	-1.29483	3.17111	20.1604	-3.82855	-10.4555	4.18144	-39.6349	17.0511
0.1180	-1.29483	-3.22824	8.57605	-0.778598	-18.384	3.26598	-14.02	20.4071
0.1187	-0.686413	-5.97082	-5.47789	1.97066	-19.6186	2.04124	1.51568	14.3121
0.1193	-1.59903	-7.48495	-14.3233	-1.0793	-13.5035	2.35051	7.9573	7.6
0.1200	-4.34858	-7.19927	-9.42916	-0.778598	-7.40762	1.43505	10.0793	5.14693
0.1207	-4.04048	-8.7134	1.84093	2.8835	-3.43374	-1.31134	5.22908	2.40792
0.1213	-0.686413	-10.856	-0.58371	1.66459	-3.74239	-3.14227	3.33449	1.18891
0.1220	-0.686413	-11.456	-8.21684	-2.60965	-4.95771	-2.2268	5.22908	4.54495
0.1227	-1.59903	-10.5418	5.52279	-2.60965	-1.29248	-1.62062	-4.2439	6.98297
0.1233	0.230104	-7.79921	26.267	-1.69144	1.75545	-2.53608	-17.0514	7.901
0.1240	-0.686413	-5.97082	26.5813	-2.91035	-2.81644	-1.31134	-14.02	10.64
0.1247	-3.43207	-6.57076	17.6909	-1.69144	-8.31428	1.43505	-1.51568	11.558
0.1253	-1.90714	-7.19927	14.0539	1.97066	-8.93159	1.43505	4.2439	7.6
0.1260	0.230104	-7.79921	7.31883	-0.472529	-8.31428	-1.31134	5.83536	5.14693
0.1267	-2.21134	-11.456	-2.11034	-4.74139	-4.95771	-2.2268	9.77612	6.06495
0.1273	-5.56931	-13.5986	-10.0578	-1.99751	-0.385814	-0.395876	15.2326	5.14693
0.1280	-3.73627	-11.456	-19.2175	2.27673	-1.00312	-0.395876	18.6428	1.18891
0.1287	1.75503	-12.9987	-24.6954	0.139611	-2.21843	-1.62062	14.3231	-3.70218
0.1293	2.97576	-19.7123	-22.5851	-2.60965	2.0641	-1.91753	7.65417	-8.57822
0.1300	-0.378307	-24.2832	-18.5889	-1.0793	6.94465	-1.62062	4.2439	-10.4143
0.1307	-0.378307	-25.1974	-15.5357	-1.69144	7.2533	-1.91753	-1.21254	-10.4143
0.1313	3.89228	-27.3401	-8.21684	-3.52249	6.01869	-1.31134	-7.9573	-12.2503
0.1320	3.89228	-32.2253	-0.314305	-1.69144	6.01869	0.828866	-5.45644	-13.4693
0.1327	0.53431	-34.3679	3.68186	0.139611	9.37527	1.43505	-0.303135	-11.0162
0.1333	1.14662	-30.9968	4.89418	-2.60965	16.7057	0.519587	-2.12195	-11.3323
0.1340	2.67155	-26.4259	-0.898015	-5.35353	20.371	0.519587	-6.36584	-14.9893
0.1347	0.842416	-23.0548	-14.009	-2.91035	17.921	0.828866	-11.2918	-14.0713
0.1353	0.53431	-18.4838	-20.1155	0.139611	17.6124	-0.0865979	-12.8075	-11.3323
0.1360	2.06314	-14.5128	-17.3766	-1.99751	20.969	-0.705154	-8.86671	-13.7703
0.1367	0.53431	-12.9987	-13.7396	-5.04746	19.1556	-0.395876	-7.0479	-16.5093
0.1373	-0.990619	-8.7134	-8.21684	-1.99751	12.4425	0.519587	-3.94076	-13.7703
0.1380	0.53431	-0.485665	1.52663	1.05245	8.15996	1.43505	5.53222	-8.87921
0.1387	-0.0741014	3.17111	4.89418	-2.60965	6.01869	0.210309	4.2439	-5.83921
0.1393	-1.59903	-1.39986	5.52279	-4.74139	3.89672	-2.2268	-9.16984	-4.92119
0.1400	1.14662	-8.7134	12.5273	-2.60965	0.540139	-3.14227	-13.4137	-5.52317
0.1407	3.28386	-13.9129	13.4253	-1.69144	-2.81644	-2.83299	-10.9887	-7.6602
0.1413	1.14662	-13.9129	-1.21232	-2.30358	-3.12509	-3.74845	-12.2012	-10.4143
0.1420	1.45083	-9.62759	-15.5357	-2.60965	-0.0771627	-4.66392	-13.1106	-10.4143
0.1427	2.97576	-7.79921	-16.4786	-3.52249	-0.0771627	-3.74845	-19.2491	-5.83921
0.1433	0.53431	-8.11346	-11.8987	-4.13462	-2.52708	-2.83299	-26.2212	-0.647129
0.1440	-0.378307	-6.28507	-14.009	-1.99751	-1.90978	-3.14227	-14.9294	-0.647129
0.1447	0.842416	-5.05663	-22.8994	-0.166459	-2.21843	-4.36701	1.51568	-4.00317
0.1453	-0.0741014	-6.28507	-28.063	-0.472529	-8.62294	-4.97319	0.909406	-7.05822
0.1460	0.230104	-7.48495	-24.6954	-1.0793	-13.5035	-5.28247	0.606271	-10.4143
0.1467	2.97576	-7.48495	-21.9565	-0.472529	-13.5035	-5.28247	6.13849	-9.19525
0.1473	3.58807	-6.88501	-26.5364	0.44568	-11.9795	-5.88866	0.606271	4.54495
0.1480	-0.0741014	-6.28507	-24.6954	0.44568	-9.24024	-5.28247	-10.3824	18.2701
0.1487	-3.43207	-11.1703	-5.47789	-0.778598	-3.74239	-3.74845	-17.0514	17.9691
0.1493	-4.34858	-17.8839	9.47406	-1.69144	-2.81644	-2.53608	-18.3397	15.2151
0.1500	-3.43207	-18.7981	3.68186	-0.778598	-9.5296	-3.45155	-5.75957	17.0511
0.1507	-4.04048	-16.6554	4.57988	0.44568	-10.7642	-3.74845	14.3231	9.72199
0.1513	-5.87351	-14.5128	31.1611	1.66459	-2.52708	-3.14227	22.5836	-2.16713
0.1520	-4.65279	-12.0845	51.2767	2.27673	-0.385814	-4.36701	21.6742	-2.16713
0.1527	-3.12786	-10.856	51.2767	-0.778598	-5.57501	-4.05773	20.1585	7.901
0.1533	-5.56931	-6.88501	61.065	-2.60965	-0.694465	-1.00206	12.2012	11.558
0.1540	-5.2612	0.428528	71.4371	-0.166459	8.15996	-1.62062	0.606271	0.872872
0.1547	-0.686413	0.742782	49.4357	1.05245	5.11203	-4.05773	-6.74476	-19.5644
0.1553	0.230104	-2.31405	13.7396	-1.99751	-1.00312	-1.31134	-9.77612	-32.3866
0.1560	0.230104	3.79961	-1.84093	-1.99751	-0.0771627	0.210309	-6.74476	-28.7295
0.1567	2.06314	8.68483	-2.73895	0.75175	-2.21843	-1.00206	3.94076	-22.6194
0.1573	0.230104	2.25691	2.73895	0.75175	-3.43374	-0.395876	9.16984	-21.4004
0.1580	-0.990619	-3.22824	9.15976	1.35852	7.85131	-0.395876	3.33449	-16.8254
0.1587	2.06314	-2.31405	4.26557	4.71455	15.1818	-1.62062	0.303135	-9.79723
0.1593	1.45083	-3.22824	-0.898015	3.80171	-3.12509	-1.31134	8.56357	-4.30416
0.1600	-2.21134	-3.22824	10.6864	1.05245	-28.7624	-2.83299	14.3231	3.0099
0.1607	-1.90714	1.05704	17.6909	1.97066	-34.5689	-4.36701	8.86671	7.6
0.1613	-1.59903	0.428528	7.31883	2.27673	-22.3579	-2.2268	2.72822	3.32594
0.1620	-3.43207	-4.14244	-0.898015	-0.778598	-8.93159	-1.00206	4.54703	-2.16713
0.1627	-3.43207	-3.82818	-2.73895	-1.69144	-3.74239	-1.91753	8.56357	-2.16713
0.1633	-3.12786	-0.77135	-8.84545	0.139611	-6.48167	-0.395876	10.6855	-4.6202
0.1640	-3.43207	-1.39986	-13.7396	0.139611	-8.00563	-0.395876	10.9887	-13.1533
0.1647	-3.43207	-5.05663	-11.2701	-1.0793	-1.00312	-1.31134	7.9573	-19.5644
0.1653	-3.12786	-7.48495	-2.73895	1.05245	7.54266	1.12577	3.94076	-20.1814
0.1660	-2.51555	-8.7134	11.0007	2.8835	7.85131	1.43505	2.42508	-17.1263
0.1667	-2.51555	-10.5418	21.0585	1.35852	5.71004	-1.31134	2.42508	-11.6333
0.1673	-4.34858	-11.456	16.1643	0.139611	8.15996	-1.62062	3.63762	-7.97624
0.1680	-4.04048	-11.456	4.57988	1.66459	12.1338	-1.62062	4.2439	-11.3323
0.1687	-1.59903	-9.62759	-3.36756	1.35852	12.4425	-3.14227	3.94076	-16.2083
0.1693	-1.59903	-6.57076	-6.69022	-0.166459	6.01869	-1.91753	4.92595	-13.1533
0.1700	-3.12786	-3.82818	-5.16359	1.05245	-3.74239	0.210309	5.53222	-6.1402
0.1707	-1.90714	-1.0856	-2.42464	3.18957	-8.00563	-0.705154	5.22908	-3.38614
0.1713	0.230104	2.25691	-2.73895	3.80171	-3.43374	-0.705154	5.22908	-3.08515
0.1720	1.75503	3.79961	-1.21232	2.8835	3.27942	0.828866	1.81881	-1.26416
0.1727	2.97576	1.65697	1.84093	1.35852	3.27942	1.43505	-3.03135	2.70891
0.1733	2.36735	0.428528	1.84093	1.97066	-0.385814	0.519587	-2.72822	6.98297
0.1740	1.14662	-0.485665	3.05325	3.80171	-0.0771627	1.43505	-0.606271	8.50298
0.1747	1.14662	-1.71411	7.31883	2.8835	2.66211	2.35051	-1.21254	3.0099
0.1753	1.45083	-1.0856	3.68186	0.75175	-1.29248	1.43505	-0.303135	-3.70218
0.1760	1.14662	1.34272	-7.31883	1.66459	-6.17302	0.519587	4.2439	-4.92119
0.1767	2.36735	2.57117	-9.15976	2.27673	-2.52708	0.519587	5.22908	-4.6202
0.1773	4.50459	2.25691	3.99617	1.66459	-0.0771627	0.519587	1.51568	-2.48317
0.1780	5.41721	0.142843	20.1604	2.5828	-4.05104	1.43505	-0.303135	3.0099
0.1787	6.02952	-0.485665	25.0546	0.75175	-3.74239	2.65979	-0.303135	5.76396
0.1793	5.113	0.742782	15.5806	-2.60965	3.27942	1.43505	-2.42508	5.14693
0.1800	3.58807	0.428528	4.26557	-0.778598	5.71004	-1.31134	-3.94076	10.339
0.1807	3.58807	0.742782	1.21232	3.18957	2.66211	-2.2268	-2.72822	18.2701
0.1813	3.89228	4.39955	0	2.27673	1.4468	-1.31134	-2.72822	21.3252
0.1820	2.06314	5.94225	-5.16359	0.139611	2.35346	-1.31134	-5.75957	21.3252
0.1827	-1.29483	4.99949	-8.21684	0.75175	2.0641	-1.31134	-5.75957	22.2432
0.1833	-3.12786	5.628	-10.6864	1.66459	0.829499	-1.00206	-3.33449	19.8052
0.1840	-2.21134	7.45638	-16.1643	-0.472529	2.0641	-0.0865979	-2.72822	15.2151
0.1847	-0.990619	8.37058	-17.6909	-2.60965	3.27942	-0.705154	-3.94076	13.6951
0.1853	-0.990619	9.59902	-12.4824	-1.69144	2.0641	-1.31134	-4.85017	13.3941
0.1860	-1.59903	9.88471	-6.69022	-0.472529	-0.0771627	-0.395876	-4.85017	10.038
0.1867	-1.59903	8.68483	-4.26557	-1.38537	0.231488	-0.0865979	-4.85017	9.72199
0.1873	-1.90714	8.37058	-5.47789	-1.69144	1.13815	-0.705154	-3.63762	13.3941
0.1880	-0.686413	9.59902	-8.21684	-2.30358	2.0641	-0.0865979	-3.03135	14.3121
0.1887	1.14662	10.5132	-9.42916	-3.52249	4.18608	0.210309	-4.54703	12.777
0.1893	-0.990619	9.59902	-12.213	-1.69144	5.71004	-1.00206	-4.2439	14.6131
0.1900	-4.34858	6.54219	-18.9032	1.05245	4.49473	0.210309	-0.909406	15.8321
0.1907	-2.81975	2.25691	-25.6383	-1.38537	4.49473	0.210309	-2.12195	14.3121
0.1913	-0.378307	-3.22824	-28.6916	-4.44069	6.32734	-1.91753	-5.75957	15.2151
0.1920	-2.51555	-7.19927	-29.2753	-1.69144	6.63599	-1.00206	-3.63762	15.2151
0.1927	-5.2612	-5.97082	-30.4876	0.44568	4.80338	0.828866	-1.21254	9.72199
0.1933	-2.51555	-4.45669	-32.3286	-0.472529	3.27942	-0.705154	-3.63762	5.46297
0.1940	-0.686413	-5.05663	-26.5364	-1.38537	3.27942	-1.00206	-2.12195	2.40792
0.1947	-2.81975	-3.82818	-18.3195	-2.60965	2.66211	1.43505	0.909406	-3.08515
0.1953	-4.34858	-1.39986	-22.5851	-3.82855	1.4468	1.43505	0.303135	-7.05822
0.1960	-3.43207	-0.77135	-25.0097	-2.60965	2.35346	0.519587	2.42508	-5.52317
0.1967	-3.12786	2.25691	-14.952	-1.69144	5.11203	0.519587	3.03135	-6.44119
0.1973	-2.21134	10.199	-14.952	-2.60965	6.94465	1.43505	-4.85017	-15.9073
0.1980	-1.29483	14.7699	-28.6916	-1.99751	8.77726	2.04124	-8.26044	-24.1394
0.1987	-0.686413	13.8557	-36.5941	-0.166459	9.68392	1.43505	-0.303135	-23.8384
0.1993	-0.686413	9.28477	-32.0143	0.139611	9.37527	-0.705154	1.51568	-20.4824
0.2000	-1.59903	3.79961	-11.5844	0.75175	9.68392	-0.705154	-5.1533	-17.1263
0.2007	-2.51555	0.428528	21.6871	1.66459	6.94465	0.519587	-7.0479	-10.7153
0.2013	-2.51555	-1.39986	35.6961	0.139611	1.75545	0.519587	0	-6.75723
0.2020	-2.21134	-3.22824	25.6383	-0.778598	2.66211	-0.0865979	9.47298	-7.35921
0.2027	-4.34858	-3.5425	20.1604	-0.778598	7.85131	0.519587	6.44163	-3.70218
0.2033	-6.79003	-3.82818	21.0585	-2.30358	7.85131	2.35051	-12.8075	2.40792
0.2040	-6.79003	-4.14244	17.6909	-3.21642	4.18608	3.26598	-24.0993	4.22891
0.2047	-6.17772	-3.5425	21.3728	-0.166459	2.66211	2.04124	-18.3397	11.558
0.2053	-8.61917	-3.82818	34.7981	0.44568	1.75545	-0.705154	-14.9294	23.4622
0.2060	-10.1441	-3.82818	42.1169	-1.0793	1.4468	-2.2268	-18.0366	23.7632
0.2067	-7.09424	-2.31405	33.2715	-0.472529	3.89672	-3.45155	-15.8388	13.3941
0.2073	-5.56931	-2.31405	13.7396	0.75175	5.42068	-3.45155	-13.4137	4.22891
0.2080	-9.83989	-2.6283	-4.26557	-1.0793	3.58807	-1.62062	-12.8075	-2.16713
0.2087	-11.6729	-0.171411	-15.85	-2.91035	3.27942	-0.395876	-3.94076	-7.6602
0.2093	-7.39844	0.142843	-24.6954	-3.52249	5.11203	0.519587	7.65417	-11.9343
0.2100	-5.2612	-2.31405	-27.4344	-3.52249	5.42068	2.9567	14.3231	-18.0444
0.2107	-6.17772	-0.485665	-21.6422	-2.60965	5.42068	3.26598	25.3118	-20.7834
0.2113	-4.957	2.88542	-8.21684	-2.60965	5.71004	1.43505	36.3005	-13.1533
0.2120	-2.21134	4.0853	13.4253	-1.69144	4.80338	0.828866	33.2691	0.571882
0.2127	-3.43207	4.71381	32.6429	-0.472529	3.89672	1.43505	22.2804	13.3941
0.2133	-4.34858	4.0853	32.9572	-0.778598	3.89672	1.74433	14.02	27.7363
0.2140	-0.686413	5.31375	18.0052	-1.99751	2.66211	2.04124	3.94076	36.2844
0.2147	0.230104	3.79961	2.73895	-1.99751	0.540139	1.12577	-10.3824	28.9553
0.2153	-1.29483	-11.456	-8.84545	-1.69144	0.829499	1.74433	-23.1899	13.6951
0.2160	1.75503	-33.1395	-16.1643	-2.60965	2.66211	4.18144	-28.3432	5.14693
0.2167	2.97576	-41.9957	-14.3233	-1.69144	1.4468	3.26598	-22.2804	2.40792
0.2173	-1.29483	-40.1388	0.942916	-0.778598	-2.21843	1.12577	-12.2012	-1.26416
0.2180	-1.90714	-36.1963	19.2175	-0.778598	-4.05104	3.26598	-9.47298	-3.38614
0.2187	-0.378307	-30.3969	21.6871	-1.69144	-4.95771	4.18144	-7.9573	-2.16713
0.2193	-1.29483	-22.4549	11.315	-0.472529	-3.12509	2.35051	-1.21254	-0.647129
0.2200	0.53431	-13.2844	15.8949	-0.166459	0.540139	2.04124	4.54703	2.70891
0.2207	2.36735	-5.97082	30.2182	-2.60965	-0.0771627	2.35051	7.9573	7.6
0.2213	-0.990619	2.25691	27.165	-3.52249	-4.64905	1.43505	9.16984	8.50298
0.2220	-2.51555	26.683	9.15976	-1.99751	-6.79032	0.828866	7.65417	6.36594
0.2227	-0.0741014	58.1084	-5.47789	-1.69144	-8.62294	-0.395876	5.83536	5.76396
0.2233	0.53431	59.6511	-16.1643	-3.52249	-10.7642	-2.83299	2.12195	6.98297
0.2240	3.89228	32.4824	-28.3773	-2.60965	-8.62294	-3.74845	-4.54703	6.36594
0.2247	6.63793	12.0273	-39.6474	-1.0793	-3.43374	-4.05773	-3.94076	2.10693
0.2253	2.97576	3.79961	-32.0143	-1.69144	-3.43374	-3.74845	1.21254	-2.78416
0.2260	0.230104	-5.05663	-8.21684	-1.38537	-7.71627	-1.62062	-5.75957	-4.00317
0.2267	1.14662	-9.62759	-10.6864	-0.472529	-7.71627	-1.31134	-15.8388	-1.56515
0.2273	-0.0741014	-8.42771	-37.537	-2.60965	-2.81644	-4.36701	-14.3231	2.40792
0.2280	-1.59903	-8.7134	-30.4876	-3.52249	1.13815	-4.97319	-10.3824	6.06495
0.2287	0.230104	-9.62759	13.4253	-0.166459	1.4468	-2.53608	-10.6855	9.421
0.2293	2.06314	-9.62759	39.378	0.44568	0.231488	-2.2268	-6.74476	14.3121
0.2300	2.36735	-11.456	43.0598	-1.99751	-0.694465	-4.36701	-1.81881	17.6681
0.2307	2.97576	-12.9987	42.7455	-1.69144	-1.29248	-5.88866	-4.54703	13.0931
0.2313	1.45083	-12.9987	33.5858	-1.0793	-0.385814	-4.97319	-8.86671	3.32594
0.2320	0.842416	-14.1986	23.7974	-2.60965	1.13815	-1.62062	-7.9573	-6.1402
0.2327	0.53431	-16.0555	23.7974	-1.99751	0.540139	-1.00206	-5.45644	-15.9073
0.2333	-1.90714	-15.7413	24.1117	-1.69144	-2.21843	-2.53608	-4.85017	-20.4824
0.2340	-3.12786	-13.5986	31.1611	-2.91035	-2.52708	-1.62062	-4.54703	-17.1263
0.2347	-1.29483	-13.5986	49.7501	-1.69144	-0.0771627	1.12577	-3.63762	-11.3323
0.2353	0.230104	-14.1986	55.8566	-1.69144	2.0641	-0.395876	-4.54703	-9.49624
0.2360	1.45083	-12.0845	43.0598	-3.52249	2.0641	-4.05773	-4.54703	-8.57822
0.2367	3.28386	-9.62759	32.6429	-2.91035	0.829499	-4.05773	-1.81881	-8.27723
0.2373	2.67155	-10.5418	27.7936	-0.778598	2.35346	0.519587	-1.21254	-8.57822
0.2380	1.45083	-11.1703	23.7974	-2.30358	6.32734	2.65979	-3.33449	-7.6602
0.2387	2.36735	-10.2561	25.6383	-4.44069	5.11203	0.210309	-2.72822	-4.00317
0.2393	3.28386	-13.2844	27.4793	-3.82855	0.829499	-0.0865979	-0.909406	0.270891
0.2400	3.28386	-17.5696	20.1604	-0.778598	2.97077	1.43505	-1.21254	0.571882
0.2407	3.89228	-14.1986	8.84545	0.75175	7.2533	-0.395876	-1.21254	-2.16713
0.2413	3.28386	-9.62759	-0.58371	-1.69144	5.71004	-3.45155	0.606271	-4.30416
0.2420	2.67155	-14.8271	-10.3721	-3.52249	2.66211	-4.05773	0.606271	-7.6602
0.2427	4.50459	-22.4549	-18.5889	-0.472529	3.27942	-4.05773	-0.909406	-13.7703
0.2433	6.63793	-22.4549	-20.1155	1.97066	2.66211	-3.45155	-2.12195	-16.8254
0.2440	5.113	-19.398	-19.2175	0.139611	1.75545	-3.45155	-2.12195	-14.0713
0.2447	2.06314	-19.7123	-20.7442	-0.778598	0.829499	-4.36701	-2.42508	-9.79723
0.2453	3.58807	-18.4838	-18.5889	-0.778598	-1.29248	-4.05773	-3.94076	-8.87921
0.2460	6.63793	-14.1986	-10.0578	-1.69144	-0.694465	-3.14227	-4.85017	-6.75723
0.2467	6.33372	-10.856	-2.73895	-1.38537	0.540139	-2.53608	-4.54703	-1.56515
0.2473	3.89228	-7.79921	3.36756	-0.778598	-4.05104	1.43505	-3.63762	1.4899
0.2480	5.72531	-4.14244	11.0007	-1.38537	-8.31428	5.09691	-3.03135	0.571882
0.2487	9.69169	-2.31405	11.0007	-1.69144	-6.17302	2.04124	-3.33449	1.4899
0.2493	9.99589	3.79961	3.36756	-1.69144	-3.12509	-0.0865979	-4.2439	3.32594
0.2500	7.85865	15.9984	1.52663	-1.99751	-2.21843	2.04124	-0.909406	2.40792
0.2507	7.55445	21.4835	2.46954	0.44568	0.231488	0.519587	5.22908	-3.08515
0.2513	8.16676	13.8557	-3.63696	0.75175	0.540139	-1.91753	4.92595	-12.2503
0.2520	7.85865	4.99949	-13.4253	-3.21642	-3.12509	1.43505	1.21254	-19.2634
0.2527	6.63793	2.25691	-23.4831	-0.778598	-3.12509	3.57526	2.72822	-18.9624
0.2533	4.19648	0.428528	-32.3286	5.32668	-1.29248	0.519587	5.83536	-13.7703
0.2540	3.89228	-0.77135	-33.8552	2.5828	-0.0771627	-1.31134	5.53222	-9.49624
0.2547	7.55445	-0.485665	-30.2182	-1.99751	3.58807	0.519587	5.83536	-9.49624
0.2553	7.85865	-1.9998	-30.2182	0.139611	8.77726	2.35051	4.92595	-10.7153
0.2560	4.19648	-3.22824	-34.1695	-0.166459	7.2533	1.12577	2.12195	-7.97624
0.2567	2.97576	-0.485665	-40.5903	-2.60965	3.27942	-0.0865979	0.606271	-4.30416
0.2573	3.28386	1.34272	-47.2805	-0.778598	5.71004	0.519587	-0.303135	-4.92119
0.2580	2.36735	-1.39986	-48.4928	-0.166459	8.15996	-0.395876	-3.33449	-4.00317
0.2587	2.97576	-3.5425	-41.174	-2.91035	4.18608	-3.74845	-7.0479	-1.86614
0.2593	4.80879	-3.22824	-23.4831	-1.38537	-1.29248	-4.66392	-7.35103	-4.92119
0.2600	4.80879	-4.14244	3.99617	1.35852	-2.52708	-4.36701	-3.94076	-6.44119
0.2607	2.97576	-4.14244	18.3195	0.139611	-1.60113	-4.66392	-3.33449	-2.48317
0.2613	2.97576	-2.31405	1.21232	-0.778598	-1.29248	-3.14227	-7.35103	-4.6202
0.2620	2.97576	-3.22824	-16.4786	0.75175	-1.29248	-0.0865979	-11.2918	-11.3323
0.2627	2.36735	-2.6283	-1.84093	1.35852	-1.29248	0.210309	-13.1106	-8.57822
0.2633	1.14662	0.742782	18.3195	-0.472529	0.231488	-1.62062	-13.4137	3.32594
0.2640	-0.990619	0.142843	10.6864	-1.69144	0.231488	-3.14227	-11.2918	10.64
0.2647	-1.59903	-2.31405	-10.0578	0.139611	-2.21843	-3.14227	-10.3824	2.70891
0.2653	-0.686413	-0.77135	-22.5851	1.35852	-3.43374	-2.2268	-10.9887	-11.9343
0.2660	-0.0741014	-0.171411	-25.9077	0.139611	-3.12509	-3.14227	-6.74476	-17.4273
0.2667	1.14662	-2.31405	-22.5851	0.139611	-5.88366	-3.14227	0.303135	-17.4273
0.2673	1.45083	-1.0856	-18.5889	1.05245	-9.24024	-1.00206	1.21254	-21.4004
0.2680	-1.29483	0.142843	-17.6909	-1.0793	-9.83825	-0.705154	1.51568	-18.6463
0.2687	-2.51555	-2.91399	-15.5357	-1.69144	-13.1948	-1.31134	6.13849	-8.57822
0.2693	-3.43207	-4.14244	-16.1643	1.66459	-16.8601	1.43505	5.83536	-4.6202
0.2700	-6.17772	-1.71411	-22.5851	2.5828	-14.7188	1.43505	0.303135	-2.48317
0.2707	-5.87351	-1.0856	-25.6383	-1.0793	-14.1208	-1.91753	-1.21254	2.40792
0.2713	-2.51555	-2.31405	-28.6916	-3.52249	-17.1687	-2.2268	-0.606271	5.14693
0.2720	-4.34858	-2.6283	-44.8559	-2.60965	-15.9534	-0.395876	-2.12195	13.3941
0.2727	-7.39844	-3.22824	-61.3345	-0.778598	-12.5968	-2.2268	-2.72822	29.8733
0.2733	-5.56931	-5.05663	-54.9136	0.139611	-12.5968	-4.05773	-2.12195	39.0234
0.2740	-5.2612	-5.05663	-31.7448	-0.778598	-11.6709	-2.53608	-1.21254	39.3244
0.2747	-7.09424	-3.22824	-23.1688	-1.0793	-9.5296	-3.45155	1.21254	42.6955
0.2753	-5.2612	-3.5425	-32.9572	0.139611	-9.5296	-6.80412	1.51568	45.1335
0.2760	-1.90714	-4.74237	-32.9572	1.66459	-10.1469	-4.36701	-0.909406	39.9414
0.2767	-4.34858	-2.91399	-20.1155	0.75175	-10.4555	1.12577	-0.909406	27.1192
0.2773	-7.39844	-2.6283	-14.009	-1.99751	-11.6709	0.828866	2.72822	8.81902
0.2780	-5.2612	-5.05663	-7.31883	-3.52249	-11.9795	-1.31134	6.13849	-4.30416
0.2787	-2.51555	-5.97082	14.952	-2.60965	-11.3622	0.519587	6.13849	-9.49624
0.2793	-3.43207	-5.37088	43.6436	-1.69144	-12.2882	1.74433	3.33449	-14.9893
0.2800	-4.957	-5.37088	73.5475	-1.0793	-12.5968	0.210309	1.51568	-14.9893
0.2807	-4.04048	-5.37088	97.3449	0.44568	-10.1469	-0.395876	3.33449	-6.44119
0.2813	-4.04048	-5.65657	90.6547	-0.166459	-6.79032	1.74433	1.51568	-5.83921
0.2820	-4.65279	-5.97082	61.3345	-3.52249	-4.64905	2.65979	-5.1533	-14.3873
0.2827	-2.51555	-7.19927	45.1702	-2.91035	-3.12509	0.519587	-6.74476	-16.8254
0.2833	-1.90714	-9.02765	42.4312	0.44568	-2.21843	-0.395876	-8.26044	-13.4693
0.2840	-3.43207	-8.11346	39.0637	0.139611	-2.52708	3.26598	-22.2804	-12.5513
0.2847	-1.29483	-5.97082	36.639	-1.0793	-2.52708	5.09691	-35.9973	-10.4143
0.2853	1.45083	-8.7134	30.5325	2.8835	-0.385814	0.519587	-28.9494	-7.6602
0.2860	-0.686413	-10.5418	19.2175	4.41385	2.97077	-0.0865979	-8.56357	-7.05822
0.2867	-1.29483	-7.79921	17.4215	-0.472529	4.18608	4.49072	4.2439	-9.79723
0.2873	2.97576	-8.42771	22.0014	-1.99751	1.75545	5.09691	6.13849	-12.5513
0.2880	3.89228	-9.94184	22.2708	1.35852	-1.60113	2.65979	9.77612	-10.1133
0.2887	0.230104	-6.88501	29.3202	1.97066	-2.21843	4.18144	18.0366	-2.78416
0.2893	-2.51555	-5.97082	41.8026	-1.0793	1.4468	4.49072	18.946	-0.647129
0.2900	-2.51555	-9.94184	37.537	-2.60965	5.11203	1.43505	14.3231	-3.08515
0.2907	-1.59903	-12.3702	22.8994	-1.0793	5.11203	0.210309	10.6855	-0.346139
0.2913	-0.686413	-12.0845	13.1559	0.75175	3.27942	-0.395876	0	6.06495
0.2920	-2.21134	-11.7702	3.68186	-0.472529	-1.29248	-1.31134	-17.0514	8.20199
0.2927	-3.12786	-9.62759	-5.47789	-2.30358	-10.4555	0.519587	-22.5836	6.68198
0.2933	-1.29483	-7.79921	-4.84928	-0.778598	-14.1208	4.49072	-16.4451	4.84594
0.2940	-0.686413	-7.79921	-0.898015	0.139611	-9.83825	6.01237	-10.0793	5.76396
0.2947	-2.51555	-8.42771	2.73895	-2.30358	-7.71627	3.26598	-3.63762	9.72199
0.2953	-2.51555	-8.7134	9.15976	-1.69144	-9.83825	1.43505	1.51568	12.1751
0.2960	-2.81975	-8.7134	10.6864	1.05245	-7.71627	4.18144	2.42508	9.421
0.2967	-4.957	-6.88501	5.7922	-0.778598	-5.88366	5.40618	2.72822	4.22891
0.2973	-3.43207	-2.91399	3.68186	-3.52249	-5.88366	1.12577	3.33449	0.571882
0.2980	-0.378307	-0.171411	0.942916	-1.69144	-0.694465	-1.31134	1.51568	-2.48317
0.2987	-3.12786	0.428528	-6.37591	-0.472529	2.66211	0.210309	0.606271	-6.44119
0.2993	-6.17772	1.05704	-9.74347	-0.472529	-1.60113	-0.395876	3.03135	-7.6602
0.3000	-5.87351	2.57117	-4.57988	-0.778598	-4.95771	-1.00206	4.2439	-6.1402
0.3007	-5.2612	3.17111	2.73895	-1.99751	-5.57501	0.519587	4.2439	-5.83921
0.3013	-5.2612	3.17111	3.99617	-2.60965	-6.79032	-0.705154	4.92595	-5.52317
0.3020	-4.04048	5.31375	-0.898015	-1.99751	-5.57501	-3.14227	6.13849	-3.08515
0.3027	-3.43207	7.77064	-3.63696	-2.60965	-3.12509	-1.91753	3.94076	-1.86614
0.3033	-4.04048	5.94225	-0.314305	-2.60965	-1.29248	-0.0865979	-0.303135	-3.38614
0.3040	-4.34858	4.0853	2.46954	-1.69144	1.13815	-1.31134	0.606271	-2.48317
0.3047	-5.2612	5.31375	-1.21232	-2.60965	1.75545	-1.00206	5.22908	0.270891
0.3053	-6.17772	4.99949	-7.31883	-2.30358	0.540139	0.828866	4.92595	1.4899
0.3060	-5.2612	4.0853	-9.42916	-0.472529	4.18608	-0.395876	2.12195	2.40792
0.3067	-4.04048	4.99949	-6.69022	-0.778598	9.99257	-2.53608	3.33449	4.22891
0.3073	-1.90714	5.94225	-7.31883	-2.30358	9.68392	-0.395876	7.35103	5.76396
0.3080	-1.59903	3.79961	-15.5357	-1.0793	8.46861	3.57526	10.9887	4.84594
0.3087	-3.12786	2.88542	-24.1117	-1.0793	10.8992	2.9567	7.0479	0.571882
0.3093	-2.81975	5.628	-28.961	-1.69144	12.4425	0.519587	-10.0793	-3.38614
0.3100	-3.43207	5.94225	-28.063	1.35852	11.8252	1.43505	-23.1899	-4.6202
0.3107	-5.56931	1.65697	-20.1155	3.18957	12.4425	1.43505	-16.4451	-3.08515
0.3113	-6.48193	0.742782	-21.0585	-0.778598	12.4425	-0.705154	-2.42508	-0.346139
0.3120	-5.56931	4.0853	-37.8513	-4.13462	10.6099	-1.31134	-0.909406	-0.346139
0.3127	-3.73627	2.57117	-42.3863	-2.30358	9.68392	-0.395876	-6.36584	-2.16713
0.3133	-1.59903	-1.0856	-27.4344	-0.166459	8.46861	-0.705154	-6.06271	-0.346139
0.3140	-3.12786	0.142843	-21.3728	-0.472529	7.85131	-0.0865979	-0.909406	1.4899
0.3147	-5.2612	0.428528	-27.7487	-1.38537	8.15996	1.74433	0.606271	-0.647129
0.3153	-2.51555	-1.71411	-33.8552	-2.30358	7.85131	-0.395876	-2.12195	-1.26416
0.3160	0.842416	-0.171411	-37.2227	-2.91035	5.42068	-2.83299	-2.72822	0.571882
0.3167	1.14662	2.25691	-31.7448	-2.60965	3.27942	-0.0865979	-0.606271	0.872872
0.3173	-0.0741014	0.428528	-17.3766	-1.99751	2.35346	2.9567	-0.909406	3.92792
0.3180	-1.90714	0.428528	-10.9558	-1.38537	2.35346	0.828866	-0.606271	7.901
0.3187	-3.12786	1.97123	-9.42916	-0.472529	1.4468	-3.45155	0	5.14693
0.3193	-1.59903	0.742782	0.942916	1.05245	-0.385814	-6.19794	-1.51568	3.0099
0.3200	-0.378307	-0.171411	15.8949	1.35852	-1.90978	-7.41031	-3.03135	7.6
0.3207	-1.59903	1.05704	30.2182	0.139611	-1.90978	-6.80412	-2.12195	11.859
0.3213	-2.21134	1.34272	35.6961	-0.778598	0.540139	-4.97319	-2.12195	12.476
0.3220	-3.73627	1.34272	22.8994	-1.0793	3.58807	-3.14227	-3.94076	10.64
0.3227	-5.87351	1.65697	7.31883	-2.60965	4.80338	-1.91753	-3.03135	7.901
0.3233	-5.2612	2.25691	-0.898015	-4.44069	4.18608	-2.53608	-0.909406	5.14693
0.3240	-4.34858	3.17111	-11.2701	-2.30358	4.80338	-4.36701	-0.303135	0.872872
0.3247	-3.12786	-0.171411	-12.4824	0.75175	5.11203	-4.97319	-3.33449	-5.52317
0.3253	-0.686413	-4.45669	1.52663	0.139611	2.0641	-4.97319	-4.85017	-7.97624
0.3260	-1.59903	-1.0856	-2.73895	-0.778598	0.540139	-5.57938	-2.12195	-7.05822
0.3267	-4.34858	2.88542	-29.2753	0.75175	3.27942	-3.74845	-0.303135	-10.1133
0.3273	-3.43207	-1.0856	-36.0104	1.05245	4.18608	-1.00206	-2.12195	-14.3873
0.3280	-3.12786	-3.22824	-19.2175	-0.472529	1.4468	-1.62062	-3.33449	-11.3323
0.3287	-8.92337	0.428528	-9.42916	0.139611	0.829499	-3.14227	-1.81881	-2.78416
0.3293	-12.5855	2.25691	-8.84545	0.75175	1.75545	-1.31134	-0.303135	3.0099
0.3300	-10.7564	0.742782	-5.16359	-1.38537	0.829499	-0.0865979	-0.909406	5.14693
0.3307	-8.61917	-0.171411	-0.898015	-2.60965	-1.00312	-2.2268	-1.81881	9.72199
0.3313	-8.01076	-1.39986	5.52279	-0.778598	-2.81644	-3.14227	-1.21254	16.7501
0.3320	-7.70265	-2.6283	16.4786	0.139611	-7.09897	-1.62062	-0.606271	19.4891
0.3327	-8.01076	-3.5425	24.1117	-1.69144	-10.4555	-0.395876	-0.606271	18.2701
0.3333	-6.48193	-5.97082	23.7974	-0.166459	-8.31428	-1.31134	-0.909406	16.7501
0.3340	-3.43207	-8.7134	22.0014	2.8835	-4.95771	-3.45155	-0.909406	13.6951
0.3347	-0.686413	-9.02765	29.3202	0.44568	-5.26636	-3.14227	-0.909406	10.956
0.3353	2.06314	-8.42771	42.1169	-3.52249	-5.88366	-0.705154	-1.81881	12.1751
0.3360	2.97576	-8.42771	43.9579	-1.0793	-6.48167	0.519587	-3.03135	11.859
0.3367	2.06314	-7.79921	32.6429	1.97066	-8.62294	1.12577	-2.12195	7.901
0.3373	1.45083	-6.57076	19.5318	0.75175	-9.24024	0.828866	0	3.92792
0.3380	2.06314	-5.37088	3.05325	-0.778598	-7.40762	-1.31134	0.606271	-0.647129
0.3387	2.06314	-3.22824	-10.0578	-0.166459	-7.40762	-2.2268	-1.51568	-5.52317
0.3393	1.75503	-2.91399	-10.3721	-0.166459	-8.93159	-1.31134	-2.72822	-8.87921
0.3400	1.14662	-5.05663	-18.3195	-0.472529	-8.31428	-0.395876	-2.42508	-13.1533
0.3407	-0.378307	-6.28507	-42.1169	-1.0793	-5.26636	1.74433	-2.12195	-19.2634
0.3413	-0.378307	-5.97082	-51.2767	-0.778598	-2.52708	5.09691	-0.606271	-25.9755
0.3420	2.06314	-5.65657	-38.4351	1.35852	-2.21843	4.49072	1.81881	-32.0856
0.3427	3.58807	-4.14244	-27.7487	0.75175	-3.12509	0.828866	1.81881	-37.2626
0.3433	2.67155	-3.5425	-30.8019	-1.69144	-0.694465	-0.395876	0.303135	-40.9347
0.3440	2.67155	-5.65657	-49.1214	0.75175	3.58807	0.519587	-0.303135	-44.2907
0.3447	3.89228	-7.19927	-70.4942	1.97066	5.11203	0.519587	-2.12195	-46.1117
0.3453	3.58807	-6.88501	-72.9189	-1.99751	4.80338	-0.395876	-3.94076	-46.1117
0.3460	1.14662	-8.7134	-69.5513	-3.52249	5.42068	-0.395876	-1.81881	-43.6737
0.3467	2.36735	-10.5418	-79.3397	-3.21642	7.2533	-1.31134	0.606271	-30.2495
0.3473	6.02952	-11.1703	-79.654	-3.52249	8.46861	-2.2268	-1.21254	-7.6602
0.3480	6.33372	-11.456	-51.2767	-0.166459	8.15996	-1.62062	-1.21254	9.421
0.3487	4.80879	-11.1703	-2.42464	1.35852	7.85131	-1.31134	1.81881	16.1331
0.3493	5.113	-11.456	40.0066	-3.52249	8.46861	-2.53608	0.606271	13.996
0.3500	6.63793	-12.3702	43.0598	-4.44069	8.77726	-1.62062	-1.51568	10.038
0.3507	7.55445	-10.856	30.2182	1.97066	7.85131	0.828866	0.909406	21.3252
0.3513	6.63793	-8.11346	51.591	1.97066	6.94465	0.519587	-0.303135	45.1335
0.3520	4.80879	-9.62759	84.5481	-3.21642	7.54266	-0.705154	-3.94076	49.4076
0.3527	4.80879	-11.1703	84.8625	-6.27174	8.46861	-0.395876	-1.21254	32.9283
0.3533	6.63793	-9.34191	71.7065	-7.18458	7.2533	-0.395876	1.21254	23.4622
0.3540	7.55445	-10.5418	65.9143	-3.82855	5.11203	-1.62062	-2.12195	19.1881
0.3547	6.63793	-13.2844	57.0689	0.75175	5.71004	-1.00206	-2.12195	10.038
0.3553	5.72531	-9.94184	42.7455	-0.778598	6.94465	0.519587	0.909406	8.20199
0.3560	6.02952	-8.11346	22.2708	-3.82855	6.01869	-1.00206	-1.21254	11.558
0.3567	4.19648	-11.1703	2.46954	-1.69144	4.18608	-2.2268	-2.12195	5.14693
0.3573	0.230104	-11.1703	-7.31883	-0.166459	2.66211	-1.00206	2.72822	-0.647129
0.3580	-2.51555	-8.42771	-13.111	-0.778598	0.231488	-0.395876	3.63762	3.0099
0.3587	-4.65279	-9.62759	-8.53115	-1.0793	-0.385814	0.828866	-1.21254	4.54495
0.3593	-5.2612	-12.0845	20.4748	-0.778598	-0.694465	3.57526	-4.2439	0.270891
0.3600	-1.29483	-10.5418	45.1702	-0.472529	-2.21843	4.18144	-4.85017	-2.48317
0.3607	0.842416	-8.42771	41.2189	-0.778598	-2.21843	4.18144	-8.26044	-2.48317
0.3613	-4.34858	-8.7134	31.1611	-2.30358	-2.21843	4.49072	-10.0793	-3.08515
0.3620	-5.2612	-10.856	27.7936	-1.38537	-2.81644	2.35051	-7.35103	-6.75723
0.3627	-0.686413	-11.456	19.2175	-0.166459	-1.00312	1.43505	-5.75957	-13.1533
0.3633	-2.51555	-9.62759	11.0007	-1.99751	0.829499	3.87216	-7.9573	-15.9073
0.3640	-6.48193	-9.34191	8.84545	-0.472529	-1.90978	3.87216	-7.9573	-14.0713
0.3647	-3.73627	-11.456	8.26174	1.97066	-4.95771	4.18144	-5.75957	-12.2503
0.3653	0.230104	-11.456	6.42081	1.05245	-5.57501	6.92783	-4.2439	-9.19525
0.3660	-0.0741014	-7.79921	3.36756	1.35852	-5.26636	5.09691	-2.42508	-4.30416
0.3667	1.75503	-6.88501	3.05325	2.27673	-3.74239	1.43505	0.303135	-0.647129
0.3673	2.97576	-8.7134	5.7922	-1.0793	-1.60113	3.26598	0.303135	1.79089
0.3680	1.14662	-10.5418	2.73895	-1.69144	-2.52708	3.26598	-3.03135	2.70891
0.3687	0.842416	-10.856	-5.47789	0.139611	-3.74239	0.519587	-4.85017	0.571882
0.3693	2.67155	-9.62759	-10.3721	-1.69144	-3.74239	2.35051	-0.606271	-2.16713
0.3700	4.19648	-8.7134	-13.4253	-0.472529	-5.88366	4.18144	2.12195	-2.16713
0.3707	6.63793	-10.5418	-16.4786	3.18957	-7.71627	2.04124	-1.21254	-0.346139
0.3713	6.94603	-12.9987	-15.5357	0.75175	-8.62294	2.35051	-2.72822	-0.030099
0.3720	5.113	-12.3702	-14.009	-1.0793	-9.5296	1.43505	-0.303135	-2.78416
0.3727	5.41721	-12.0845	-15.5357	1.35852	-8.62294	-4.05773	-2.72822	-6.1402
0.3733	4.80879	-11.456	-9.74347	-0.778598	-6.79032	-5.28247	-5.1533	-6.44119
0.3740	3.28386	-7.79921	4.57988	-3.21642	-8.31428	-1.31134	-1.51568	-4.00317
0.3747	2.97576	-6.88501	13.1559	-0.778598	-10.4555	1.43505	0.303135	-2.78416
0.3753	1.75503	-10.5418	10.6864	-0.778598	-8.62294	2.35051	-1.21254	-3.38614
0.3760	1.45083	-10.856	4.26557	-1.69144	-6.79032	2.9567	-0.303135	-4.6202
0.3767	7.85865	-8.7134	-1.52663	0.44568	-5.26636	0.828866	0	-4.00317
0.3773	12.4373	-8.7134	-5.47789	-0.166459	-3.43374	-2.53608	-1.81881	-4.00317
0.3780	9.69169	-8.7134	-6.1065	-1.69144	-4.95771	-3.14227	-1.21254	-4.92119
0.3787	8.47096	-8.42771	-5.16359	0.139611	-8.62294	-1.91753	-0.606271	-4.00317
0.3793	10.3001	-10.5418	-6.1065	0.139611	-7.71627	-1.31134	-1.81881	-3.38614
0.3800	9.07938	-12.0845	-6.69022	-2.30358	-4.64905	-2.2268	-2.12195	-5.83921
0.3807	7.85865	-10.2561	-6.37591	-1.69144	-4.95771	-2.83299	-2.12195	-5.52317
0.3813	8.16676	-10.5418	-6.69022	-0.778598	-4.35969	-3.45155	-3.63762	-3.38614
0.3820	9.38748	-14.1986	-6.69022	-1.69144	-2.81644	-4.05773	-3.94076	-2.48317
0.3827	12.4373	-13.5986	-6.69022	-0.472529	-2.81644	-2.2268	-1.81881	0.270891
0.3833	11.2166	-9.62759	-8.84545	0.44568	-2.81644	0.210309	-0.303135	2.10693
0.3840	3.58807	-10.5418	-10.9558	-0.166459	-1.00312	-2.2268	-1.21254	-2.16713
0.3847	-0.686413	-16.3412	-10.9558	0.139611	-0.385814	-7.1134	-4.2439	-4.30416
0.3853	-0.686413	-16.9697	-11.8987	1.35852	-1.29248	-8.94433	-5.45644	-1.86614
0.3860	-2.51555	-14.8271	-14.009	0.75175	-0.385814	-9.55051	-5.1533	-2.16713
0.3867	-2.81975	-17.5696	-14.6377	0.139611	0.231488	-12.9031	-3.94076	-4.6202
0.3873	-3.12786	-20.9407	-13.7396	1.05245	-1.00312	-14.734	-2.42508	-2.78416
0.3880	-8.01076	-20.3122	-13.111	1.97066	-1.29248	-14.1278	-2.12195	-0.948119
0.3887	-11.3648	-19.0838	-12.213	1.05245	1.4468	-16.5649	-3.03135	-1.56515
0.3893	-8.01076	-17.8839	-10.9558	0.139611	3.27942	-19.6206	-1.21254	0.270891
0.3900	-6.79003	-15.7413	-8.84545	0.44568	1.13815	-21.4515	1.51568	3.32594
0.3907	-8.61917	-16.0555	-6.37591	1.97066	0.540139	-26.0289	0.909406	2.70891
0.3913	-7.70265	-17.5696	-5.47789	1.97066	2.66211	-30.6062	-0.303135	4.22891
0.3920	-7.09424	-15.427	-6.37591	1.97066	3.27942	-30.9155	0	9.12001
0.3927	-9.53569	-12.9987	-7.31883	1.97066	1.13815	-30.6062	-0.303135	8.81902
0.3933	-10.7564	-12.3702	-6.1065	0.139611	0.540139	-31.8309	-0.606271	3.92792
0.3940	-10.4522	-12.6844	-1.84093	-1.69144	0.540139	-30	1.81881	3.32594
0.3947	-11.3648	-13.9129	0	-1.0793	0.540139	-26.9443	2.42508	4.22891
0.3953	-12.5855	-13.5986	-3.63696	-0.778598	1.4468	-27.2536	-1.81881	3.32594
0.3960	-11.3648	-11.1703	-6.69022	-1.69144	2.35346	-26.9443	-3.63762	5.14693
0.3967	-9.53569	-8.7134	-6.37591	-0.778598	2.35346	-23.901	-0.606271	8.20199
0.3973	-7.09424	-8.7134	-5.7922	1.35852	1.75545	-21.4515	1.21254	7.901
0.3980	-5.2612	-9.62759	-6.1065	0.75175	2.66211	-21.4515	-0.606271	6.98297
0.3987	-5.2612	-9.62759	-4.57988	-0.472529	4.49473	-19.3113	-3.03135	8.81902
0.3993	-6.17772	-5.97082	-1.84093	-0.472529	4.49473	-17.1835	-3.33449	10.64
0.4000	-6.17772	-1.0856	0	-1.69144	3.58807	-16.8742	-3.03135	9.12001
0.4007	-6.17772	-0.77135	-2.73895	-2.60965	3.27942	-17.1835	-2.42508	6.06495
0.4013	-5.87351	-1.39986	-7.90254	-0.778598	3.27942	-15.9588	-0.909406	5.46297
0.4020	-3.73627	1.05704	-9.74347	0.75175	3.89672	-15.0433	-1.81881	6.06495
0.4027	-3.43207	3.79961	-10.0578	0.75175	4.80338	-15.9588	-6.36584	5.14693
0.4033	-4.34858	6.22794	-11.2701	-0.778598	3.27942	-15.9588	-7.9573	4.54495
0.4040	-2.81975	8.97052	-12.213	-1.99751	-0.0771627	-13.5216	-4.2439	2.70891
0.4047	-2.21134	9.59902	-10.6864	-1.99751	0.540139	-10.1567	-2.72822	0.872872
0.4053	-2.51555	8.97052	-7.00452	-2.60965	3.58807	-7.41031	-4.54703	3.0099
0.4060	-1.90714	9.59902	-6.1065	-4.13462	3.58807	-6.49484	-3.03135	4.22891
0.4067	-0.686413	10.199	-10.6864	-4.44069	1.75545	-7.1134	0.909406	1.4899
0.4073	0.842416	11.4274	-15.2663	-3.52249	1.75545	-7.41031	0.606271	0.872872
0.4080	0.230104	14.4842	-16.4786	-3.21642	2.97077	-8.63505	-1.51568	0.571882
0.4087	-3.43207	14.4842	-19.5318	-1.99751	2.66211	-11.3814	-1.51568	-4.92119
0.4093	-4.65279	11.4274	-24.6954	-1.38537	0.829499	-8.94433	-1.51568	-8.87921
0.4100	-1.90714	12.0273	-28.961	-1.69144	-1.00312	-4.05773	-2.72822	-10.4143
0.4107	-2.51555	13.2558	-29.2753	-0.778598	-0.694465	-2.2268	-3.03135	-14.3873
0.4113	-4.04048	11.4274	-18.3195	-1.38537	0.540139	1.43505	-1.21254	-14.9893
0.4120	-0.0741014	8.68483	0.314305	-1.99751	1.75545	6.92783	0.303135	-9.49624
0.4127	2.36735	7.77064	13.4253	-0.472529	1.4468	2.35051	-0.303135	-7.6602
0.4133	0.230104	9.59902	22.8994	0.75175	-1.00312	-8.63505	0.303135	-6.44119
0.4140	0.53431	11.1132	30.2182	0.139611	-1.60113	-13.8186	1.21254	-1.86614
0.4147	2.67155	9.59902	25.6383	0.139611	-0.0771627	-12.9031	0.303135	-1.26416
0.4153	0.842416	7.14213	9.78837	0.139611	-0.385814	-8.32577	0.606271	-2.16713
0.4160	-0.686413	6.22794	-1.84093	-0.472529	-1.00312	1.43505	3.33449	3.92792
0.4167	2.67155	4.0853	-1.52663	0.75175	0.540139	10.2804	4.2439	9.72199
0.4173	6.02952	1.97123	4.26557	-0.472529	-1.00312	15.167	5.22908	4.84594
0.4180	6.02952	3.79961	3.68186	-1.69144	-1.00312	20.0536	5.22908	-3.70218
0.4187	4.50459	4.0853	-3.63696	0.75175	5.42068	23.4062	0.606271	-8.87921
0.4193	4.50459	2.25691	-5.47789	0.44568	8.77726	24.9278	-4.2439	-13.7703
0.4200	5.41721	2.88542	0.628611	-2.91035	4.49473	28.5897	-1.81881	-15.9073
0.4207	3.89228	3.48536	5.20849	-1.69144	2.35346	31.6453	2.12195	-12.2503
0.4213	1.14662	1.34272	6.1065	-0.166459	1.4468	33.4763	-2.42508	-7.05822
0.4220	-0.378307	2.25691	7.63313	-1.69144	-2.52708	38.0536	-10.6855	-3.08515
0.4227	-3.73627	3.17111	10.1027	-1.69144	-6.17302	40.8	-10.6855	1.4899
0.4233	-7.09424	0.428528	10.3721	-2.60965	-7.71627	38.6721	-3.94076	2.40792
0.4240	-6.17772	-0.485665	3.99617	-4.13462	-10.1469	37.1381	-5.75957	0.872872
0.4247	-5.2612	0.428528	-1.52663	-0.778598	-10.4555	36.5319	-16.4451	7.6
0.4253	-6.48193	-1.39986	6.1065	1.05245	-7.71627	33.7856	-17.6576	17.9691
0.4260	-7.39844	-1.9998	17.6909	-2.60965	-6.79032	31.6453	-8.26044	18.8871
0.4267	-6.48193	-1.39986	18.0052	-1.38537	-5.88366	28.2928	-4.2439	11.859
0.4273	-7.09424	-2.31405	11.0007	1.05245	-2.21843	23.4062	-5.45644	5.14693
0.4280	-7.09424	-0.485665	5.20849	-2.91035	0.231488	20.0536	-3.63762	0.270891
0.4287	-4.65279	3.79961	-0.898015	-3.82855	-0.385814	18.2227	-3.03135	-1.26416
0.4293	-3.43207	4.0853	-0.58371	-1.38537	0.540139	16.9979	-4.85017	-1.86614
0.4300	-4.04048	2.25691	11.0007	-3.82855	2.0641	17.9134	-3.03135	-6.1402
0.4307	-1.59903	0.428528	14.6377	-6.27174	1.4468	16.3917	0.303135	-13.1533
0.4313	0.842416	-1.9998	3.68186	-4.13462	0.829499	13.9423	0.606271	-20.1814
0.4320	-0.378307	-1.39986	3.36756	-3.52249	1.4468	16.0825	-1.81881	-24.1394
0.4327	-0.686413	1.34272	22.8994	-5.04746	-0.694465	16.9979	-3.03135	-20.4824
0.4333	1.45083	1.65697	35.1124	-3.82855	-2.81644	13.3361	-0.909406	-13.1533
0.4340	1.75503	0.428528	22.8994	-0.778598	-3.12509	12.1113	1.51568	-11.6333
0.4347	0.53431	1.34272	-6.1065	-1.38537	-4.95771	12.1113	0.303135	-13.7703
0.4353	1.14662	1.05704	-34.4838	-4.44069	-6.79032	9.9835	-2.12195	-14.0713
0.4360	2.06314	1.05704	-51.2767	-3.52249	-5.88366	10.5897	-3.03135	-19.5644
0.4367	1.14662	2.88542	-64.3877	1.05245	-7.09897	9.06804	-3.03135	-29.6325
0.4373	1.14662	1.05704	-86.6585	1.66459	-8.93159	2.35051	-1.51568	-27.1945
0.4380	3.58807	-3.5425	-102.508	-0.778598	-6.79032	-3.14227	0	-11.0162
0.4387	5.72531	-3.82818	-93.0793	-0.778598	-4.64905	-7.71958	-0.303135	1.4899
0.4393	6.33372	-3.22824	-69.8656	-0.472529	-4.35969	-12.9031	-1.21254	1.18891
0.4400	5.113	-4.74237	-40.276	-0.778598	-1.60113	-9.85979	-1.51568	-4.6202
0.4407	2.06314	-3.22824	17.4215	-0.166459	2.66211	-4.05773	-0.303135	-3.38614
0.4413	-1.59903	-1.39986	86.9728	1.35852	3.58807	-4.97319	1.51568	12.476
0.4420	-2.51555	-5.97082	98.6021	2.5828	2.35346	-5.28247	-0.909406	29.8733
0.4427	-2.81975	-9.62759	40.0066	1.05245	3.27942	-2.2268	-6.74476	28.3382
0.4433	-4.957	-7.79921	-7.90254	-0.778598	3.27942	-1.31134	-7.9573	21.6262
0.4440	-4.34858	-6.88501	0	1.05245	0.829499	4.49072	-4.85017	34.1473
0.4447	-1.90714	-7.19927	24.426	1.97066	-0.385814	16.3917	-3.03135	54.5846
0.4453	-3.43207	-7.48495	29.3202	-0.166459	3.27942	20.0536	-2.42508	59.7767
0.4460	-5.2612	-9.02765	22.2708	1.35852	6.63599	17.9134	-1.51568	50.9276
0.4467	-3.43207	-9.02765	22.8994	4.71455	3.27942	24.0124	-1.51568	39.9414
0.4473	-4.04048	-6.88501	34.7981	2.5828	-0.385814	33.4763	-0.909406	30.1743
0.4480	-8.31496	-6.57076	38.48	1.05245	1.75545	34.3917	1.21254	20.7081
0.4487	-8.92337	-8.42771	28.1079	3.80171	3.89672	30.4206	2.42508	10.339
0.4493	-5.56931	-9.62759	22.8994	2.8835	2.35346	30.1237	1.51568	0.571882
0.4500	-4.65279	-10.5418	17.1072	0.75175	1.4468	30.7299	-0.303135	-7.05822
0.4507	-6.79003	-9.62759	-1.21232	1.66459	1.4468	27.9835	-0.303135	-16.2083
0.4513	-8.01076	-8.7134	-10.9558	2.27673	0.231488	25.2371	1.51568	-26.2765
0.4520	-7.39844	-8.42771	-10.6864	0.44568	0.829499	22.4907	1.81881	-31.7695
0.4527	-4.957	-6.88501	-23.1688	-1.69144	1.13815	19.1381	0.909406	-33.3046
0.4533	-0.378307	-5.97082	-43.6436	-2.60965	-0.385814	18.5196	2.42508	-33.6056
0.4540	2.67155	-6.88501	-56.7546	-1.69144	1.75545	19.1381	3.33449	-29.6325
0.4547	2.97576	-8.11346	-50.6481	-0.472529	4.49473	16.3917	1.21254	-18.6463
0.4553	4.19648	-8.42771	-9.74347	0.139611	2.0641	12.4206	0	-7.35921
0.4560	6.33372	-7.79921	37.2227	1.35852	1.4468	9.9835	1.51568	-1.26416
0.4567	6.33372	-5.65657	40.276	1.97066	4.49473	9.36494	1.21254	4.54495
0.4573	6.63793	-5.65657	23.2137	1.05245	3.58807	9.06804	0.303135	11.859
0.4580	9.99589	-6.28507	32.9572	1.05245	1.75545	6.92783	-0.606271	10.64
0.4587	14.8788	-2.91399	55.8566	2.27673	1.4468	3.26598	-2.72822	4.54495
0.4593	15.4872	-0.485665	65.9143	1.97066	0.231488	2.9567	-2.72822	8.81902
0.4600	12.4373	-1.71411	70.1799	-0.778598	-0.385814	3.26598	1.51568	15.5311
0.4607	8.77517	-1.71411	70.8085	-3.21642	1.4468	1.74433	2.12195	10.64
0.4613	6.02952	-1.39986	59.5384	-2.91035	1.13815	0.828866	-2.12195	5.46297
0.4620	3.89228	-2.31405	35.6961	0.139611	0.540139	0.519587	-3.33449	6.98297
0.4627	2.97576	-1.71411	8.84545	2.8835	1.4468	-1.00206	-3.33449	4.22891
0.4633	3.28386	-0.171411	-4.57988	1.35852	1.4468	-3.14227	-5.45644	-1.26416
0.4640	0.842416	0.142843	-1.84093	-1.99751	0.540139	-4.66392	-4.85017	-0.647129
0.4647	-3.43207	1.34272	0.628611	-2.30358	-0.385814	-4.66392	-1.21254	-1.26416
0.4653	-4.04048	2.88542	-7.63313	0.75175	0.829499	-3.14227	1.51568	-7.35921
0.4660	-2.21134	2.57117	-19.8461	1.66459	3.89672	-2.83299	6.13849	-8.57822
0.4667	-1.90714	1.97123	-26.5364	1.35852	5.11203	-5.28247	9.16984	-1.26416
0.4673	-3.43207	1.34272	-23.7974	2.5828	4.49473	-7.71958	7.65417	4.22891
0.4680	-5.56931	1.34272	-16.4786	2.5828	4.18608	-7.71958	11.8981	2.70891
0.4687	-7.70265	2.88542	-10.9558	0.139611	5.42068	-5.28247	16.824	0.571882
0.4693	-7.09424	4.39955	-2.11034	-1.38537	8.15996	-5.57938	1.81881	0.872872
0.4700	-4.04048	5.31375	10.6864	-1.38537	7.2533	-7.71958	-18.6428	3.0099
0.4707	-2.81975	4.99949	13.7396	-0.166459	2.35346	-6.19794	-21.371	5.14693
0.4713	-4.34858	2.88542	2.73895	1.35852	0.540139	-3.14227	-17.3545	5.46297
0.4720	-2.51555	1.65697	-7.00452	0.44568	0.540139	-5.57938	-16.142	3.62693
0.4727	-0.378307	2.25691	-13.111	-1.99751	-3.43374	-7.71958	-6.74476	2.40792
0.4733	-0.0741014	2.57117	-22.8994	-1.69144	-6.17302	-5.28247	3.33449	1.4899
0.4740	2.67155	3.17111	-30.8019	-0.166459	-5.26636	-4.97319	0	-0.647129
0.4747	6.02952	4.71381	-31.1162	-0.472529	-6.79032	-6.80412	-7.0479	0.571882
0.4753	3.58807	5.94225	-31.1162	-2.30358	-6.79032	-4.97319	-8.86671	4.22891
0.4760	-0.990619	5.628	-32.3286	-2.30358	-3.43374	-4.36701	-6.06271	3.0099
0.4767	-0.0741014	4.0853	-32.6429	-0.166459	-6.79032	-8.02886	2.12195	-0.948119
0.4773	0.53431	4.71381	-32.0143	1.05245	-12.2882	-8.63505	6.44163	-0.647129
0.4780	-2.51555	4.99949	-31.1162	-1.0793	-10.7642	-6.19794	-1.21254	1.4899
0.4787	-4.04048	3.17111	-29.2753	-2.30358	-10.4555	-7.71958	-1.51568	1.4899
0.4793	-2.21134	1.65697	-30.8019	-1.69144	-13.1948	-9.55051	14.9294	-0.647129
0.4800	-1.90714	1.65697	-36.3247	-2.30358	-10.4555	-8.02886	13.4137	-5.52317
0.4807	-3.43207	1.34272	-37.8513	-3.82855	-3.43374	-7.71958	-23.1899	-7.6602
0.4813	-4.34858	-0.77135	-34.7981	-2.91035	-5.88366	-8.94433	-50.3205	-5.83921
0.4820	-4.957	-3.22824	-33.8552	-2.30358	-17.4774	-8.32577	-34.4816	-6.75723
0.4827	-4.34858	-3.22824	-33.2715	-2.60965	-27.2384	-8.94433	-10.3824	-9.79723
0.4833	-1.59903	-2.31405	-30.2182	-1.38537	-27.2384	-11.0722	-9.47298	-7.6602
0.4840	0.842416	-3.22824	-27.4344	0.139611	-22.3579	-8.94433	-11.2918	-6.1402
0.4847	0.842416	-4.74237	-29.2753	-0.166459	-19.6186	-6.49484	-1.21254	-9.79723
0.4853	1.45083	-4.74237	-30.8019	1.05245	-18.6927	-8.02886	5.22908	-10.1133
0.4860	2.06314	-5.37088	-30.2182	2.8835	-14.7188	-8.02886	3.63762	-7.05822
0.4867	0.53431	-5.37088	-28.3773	1.35852	-10.4555	-5.57938	4.54703	-8.57822
0.4873	0.53431	-2.91399	-27.7487	0.139611	-8.93159	-5.88866	5.22908	-10.1133
0.4880	1.14662	-3.22824	-28.6916	0.44568	-6.17302	-7.41031	3.63762	-8.27723
0.4887	-1.90714	-6.88501	-29.2753	-1.38537	1.4468	-3.45155	6.13849	-10.1133
0.4893	-4.34858	-6.88501	-27.4344	-1.99751	7.85131	0.828866	9.77612	-13.1533
0.4900	-2.51555	-4.14244	-22.5851	-1.38537	9.37527	0.210309	2.42508	-10.7153
0.4907	-1.29483	-5.65657	-17.3766	-3.21642	9.99257	-2.2268	-12.8075	-9.49624
0.4913	-1.90714	-7.48495	-14.6377	-4.13462	10.6099	-1.31134	-16.142	-11.9343
0.4920	-0.686413	-5.65657	-13.111	-1.69144	8.46861	1.43505	-3.94076	-12.8523
0.4927	0.53431	-5.05663	-8.84545	-1.99751	6.94465	1.74433	7.9573	-14.6883
0.4933	2.36735	-9.34191	-5.47789	-4.13462	7.2533	0.828866	8.86671	-17.1263
0.4940	4.80879	-11.456	-6.37591	-4.13462	6.94465	2.04124	1.51568	-14.9893
0.4947	4.19648	-7.79921	-7.00452	-2.60965	6.94465	5.09691	-9.47298	-11.3323
0.4953	1.45083	-5.05663	-3.95127	-1.38537	6.94465	6.32165	-14.9294	-10.4143
0.4960	2.67155	-6.28507	-2.73895	-2.60965	4.80338	5.40618	-9.16984	-6.75723
0.4967	4.80879	-5.05663	-2.73895	-5.35353	4.49473	3.26598	-2.12195	-1.86614
0.4973	5.72531	-3.5425	0.314305	-3.52249	5.42068	2.04124	-1.81881	-0.948119
0.4980	9.07938	-5.65657	1.84093	-1.69144	6.01869	1.12577	-3.63762	-1.86614
0.4987	11.8289	-4.74237	-0.898015	-4.13462	9.37527	-1.91753	-2.12195	-2.16713
0.4993	10.6082	-1.39986	0.942916	-3.52249	11.2079	-4.97319	-0.303135	-1.86614
0.5000	9.69169	-3.5425	5.52279	0.139611	7.85131	-4.05773	0.606271	-1.56515
0.5007	9.99589	-6.88501	0.942916	-1.38537	8.46861	-2.83299	1.51568	-2.16713
0.5013	8.77517	-5.65657	-4.57988	-2.60965	13.0405	-4.05773	2.12195	-4.00317
0.5020	7.25024	-4.45669	5.20849	-0.166459	11.2079	-4.05773	1.51568	-2.16713
0.5027	6.63793	-5.97082	22.0014	0.139611	7.85131	-2.83299	-0.303135	6.06495
0.5033	6.33372	-6.88501	26.5813	-1.0793	10.6099	-1.62062	-1.51568	11.558
0.5040	6.94603	-6.57076	19.8461	-1.38537	14.2558	-0.395876	-2.12195	6.36594
0.5047	6.63793	-4.74237	11.8987	-1.0793	13.3492	-1.31134	-0.606271	-0.647129
0.5053	4.80879	-1.0856	7.31883	-0.778598	11.5165	-3.74845	2.42508	1.18891
0.5060	4.80879	-0.485665	5.52279	-1.99751	12.7318	-3.14227	2.12195	4.22891
0.5067	6.33372	-1.71411	5.20849	-4.74139	16.0884	-0.395876	-1.81881	3.62693
0.5073	5.72531	-1.39986	6.42081	-3.82855	17.0144	0.519587	-3.03135	6.06495
0.5080	2.67155	-3.22824	5.52279	-0.778598	14.5645	2.65979	-1.21254	7.901
0.5087	0.230104	-5.37088	1.84093	-1.0793	15.4904	5.40618	-0.303135	6.68198
0.5093	0.53431	-2.91399	-0.898015	-1.69144	17.921	4.49072	0.909406	8.81902
0.5100	1.45083	-0.485665	-0.898015	0.139611	17.0144	1.74433	2.42508	10.64
0.5107	-0.686413	-1.39986	0	1.35852	14.5645	-0.395876	0.909406	6.98297
0.5113	-3.73627	-1.39986	-3.95127	-0.778598	13.0405	-4.97319	-0.303135	4.54495
0.5120	-4.34858	-2.31405	-10.3721	-2.91035	10.6099	-8.63505	0.909406	3.32594
0.5127	-4.34858	-5.97082	-8.84545	-1.69144	8.77726	-7.71958	1.81881	-1.26416
0.5133	-5.56931	-7.79921	0	0.44568	7.85131	-4.05773	0.606271	-1.56515
0.5140	-6.48193	-5.37088	6.73512	-1.0793	6.01869	-0.395876	-1.21254	3.0099
0.5147	-6.79003	-3.22824	14.6377	-4.44069	6.01869	1.12577	-2.12195	4.22891
0.5153	-8.01076	-3.5425	27.165	-2.60965	6.63599	1.74433	0.303135	1.4899
0.5160	-9.23148	-5.05663	34.4838	2.5828	3.27942	2.35051	2.12195	-2.48317
0.5167	-8.61917	-6.28507	32.9572	2.27673	1.4468	3.26598	-0.303135	-5.52317
0.5173	-6.48193	-5.97082	25.6383	-1.69144	2.35346	5.09691	-0.909406	-7.35921
0.5180	-6.79003	-5.65657	14.6377	-1.69144	0.540139	5.70309	1.51568	-12.2503
0.5187	-8.01076	-5.97082	5.7922	0.139611	-3.43374	3.87216	1.51568	-18.0444
0.5193	-6.17772	-4.45669	-5.47789	-0.166459	-2.81644	1.12577	0	-15.9073
0.5200	-4.34858	-3.5425	-29.9039	-0.778598	0.540139	-3.45155	-1.21254	-10.7153
0.5207	-5.87351	-4.45669	-51.8604	-0.472529	0.829499	-6.19794	-2.12195	-10.7153
0.5213	-7.09424	-3.22824	-56.7546	-1.69144	-0.694465	-3.14227	0.606271	-13.1533
0.5220	-5.2612	-1.39986	-60.1221	-1.69144	-2.21843	0.828866	3.63762	-16.8254
0.5227	-5.2612	-1.9998	-62.2325	-0.166459	-2.81644	-0.395876	0.606271	-20.7834
0.5233	-5.87351	-3.22824	-47.9091	-0.778598	-4.05104	-2.2268	-1.51568	-22.6194
0.5240	-5.2612	-4.14244	-30.8019	-1.38537	-4.95771	-3.14227	3.03135	-25.0574
0.5247	-3.12786	-4.74237	-28.3773	0.139611	-4.05104	-4.36701	3.94076	-25.9755
0.5253	-3.73627	-4.45669	-19.5318	-1.0793	-3.12509	-4.05773	-0.606271	-17.7434
0.5260	-5.2612	-5.65657	18.3195	-1.99751	-3.43374	-4.97319	-3.03135	-5.83921
0.5267	-5.2612	-9.62759	63.1754	-1.0793	-3.43374	-7.41031	-2.42508	-2.48317
0.5273	-5.2612	-12.3702	75.0741	-1.69144	-2.52708	-8.63505	-2.12195	-4.00317
0.5280	-5.87351	-10.5418	53.1176	-1.69144	-2.21843	-10.466	-0.909406	0.571882
0.5287	-4.65279	-8.11346	40.0066	0.139611	-2.81644	-11.6907	-1.21254	12.1751
0.5293	-4.34858	-8.7134	57.6975	-0.778598	-2.81644	-7.41031	-0.909406	29.8733
0.5300	-5.2612	-9.34191	79.654	-3.52249	-4.05104	-4.05773	2.42508	52.4476
0.5307	-3.73627	-8.42771	78.4417	-1.38537	-4.95771	-9.85979	4.2439	68.0238
0.5313	-2.51555	-9.02765	52.8033	1.05245	-3.43374	-14.734	2.42508	64.9688
0.5320	-2.21134	-10.5418	15.8949	0.44568	-3.12509	-11.6907	1.51568	46.3525
0.5327	-0.378307	-9.62759	-12.213	-1.99751	-4.95771	-9.24123	1.81881	24.3802
0.5333	-1.59903	-7.48495	-18.9032	-4.44069	-5.26636	-10.466	-0.606271	6.98297
0.5340	-4.04048	-6.88501	-17.3766	-3.21642	-4.64905	-15.0433	-2.72822	-3.38614
0.5347	0.230104	-7.79921	-28.961	1.05245	-4.35969	-23.5917	-1.51568	-5.83921
0.5353	3.58807	-6.28507	-50.0195	0.139611	-4.64905	-34.268	0.303135	0.872872
0.5360	-0.686413	-3.22824	-51.2767	-3.52249	-4.95771	-37.3237	0.606271	9.12001
0.5367	-3.12786	-2.6283	-17.6909	-2.60965	-5.26636	-31.2247	0.606271	2.70891
0.5373	-1.29483	-5.37088	26.267	-0.778598	-4.95771	-22.6763	-0.303135	-11.3323
0.5380	-3.43207	-6.57076	39.378	-0.778598	-6.48167	-16.8742	-0.606271	-13.4693
0.5387	-4.65279	-5.05663	17.4215	-0.472529	-7.71627	-11.9876	-0.303135	-12.5513
0.5393	-2.21134	-4.74237	1.84093	-0.166459	-4.64905	-8.63505	0.303135	-21.0994
0.5400	-3.73627	-4.14244	23.7974	-0.778598	-3.43374	-6.80412	0	-22.3184
0.5407	-6.48193	-4.14244	65.0163	0.139611	-7.09897	-4.05773	-0.606271	-10.4143
0.5413	-4.957	-6.57076	83.9195	1.35852	-8.00563	-1.31134	-1.21254	-0.346139
0.5420	-2.51555	-8.42771	68.6982	1.66459	-6.17302	-1.31134	-1.51568	8.20199
0.5427	-2.51555	-6.88501	42.7455	1.05245	-7.71627	0.519587	-1.51568	17.6681
0.5433	-1.59903	-7.79921	27.165	1.05245	-10.1469	8.15257	-1.51568	12.777
0.5440	-1.59903	-10.5418	18.3195	1.66459	-10.4555	15.167	-0.606271	-4.6202
0.5447	-2.51555	-10.5418	9.47406	1.35852	-10.1469	15.167	-0.606271	-13.7703
0.5453	-3.12786	-11.1703	0.628611	0.44568	-11.0729	14.8577	-2.72822	-11.0162
0.5460	-1.90714	-14.5128	-7.00452	0.139611	-11.3622	17.6041	-2.72822	-10.1133
0.5467	0.230104	-14.8271	-9.15976	0.44568	-10.1469	14.8577	-0.909406	-13.4693
0.5473	1.14662	-11.7702	-4.26557	0.139611	-10.4555	6.61855	-2.12195	-15.6063
0.5480	1.14662	-11.456	1.84093	-0.472529	-12.9055	3.26598	-3.03135	-16.8254
0.5487	2.06314	-12.3702	12.213	-1.38537	-13.5035	3.87216	-1.21254	-18.6463
0.5493	3.89228	-10.856	29.9039	-1.69144	-10.4555	2.65979	-3.03135	-16.2083
0.5500	2.97576	-9.62759	39.378	1.05245	-9.5296	2.35051	-4.85017	-9.49624
0.5507	2.67155	-9.94184	36.3247	1.97066	-12.2882	2.04124	-0.303135	-4.6202
0.5513	4.80879	-9.62759	35.6961	-1.38537	-11.3622	-1.91753	2.42508	-3.08515
0.5520	5.72531	-8.11346	34.4838	-1.69144	-9.24024	-3.14227	-1.21254	-2.78416
0.5527	6.33372	-7.79921	25.324	1.97066	-11.6709	-0.0865979	-2.42508	2.40792
0.5533	6.94603	-7.79921	23.7974	1.05245	-14.1208	-1.00206	-1.51568	14.3121
0.5540	3.28386	-6.88501	32.0592	-1.99751	-13.1948	-4.36701	-2.72822	21.6262
0.5547	-1.90714	-5.97082	25.6383	-0.778598	-13.5035	-3.14227	-2.72822	20.1062
0.5553	-1.59903	-5.65657	5.7922	0.139611	-16.262	-1.31134	-0.606271	17.6681
0.5560	0.230104	-3.22824	-4.57988	-0.778598	-16.5514	-2.53608	-1.81881	14.9141
0.5567	-2.51555	-1.39986	0.314305	-0.778598	-15.0274	-1.91753	-3.33449	7.901
0.5573	-4.65279	-2.91399	9.47406	-1.0793	-14.1208	0.519587	-0.606271	4.84594
0.5580	-1.29483	-2.91399	11.8987	-0.778598	-13.1948	0.519587	2.72822	9.72199
0.5587	-0.378307	-0.171411	4.57988	0.75175	-11.3622	-1.00206	1.21254	11.558
0.5593	-4.34858	-0.77135	-1.84093	-1.69144	-10.4555	-0.705154	-3.03135	8.81902
0.5600	-4.65279	-1.9998	-5.47789	-3.52249	-8.62294	0.519587	-3.63762	9.12001
0.5607	-2.51555	0.428528	-9.74347	-1.0793	-7.40762	-0.395876	-1.21254	9.72199
0.5613	-2.81975	1.34272	-8.84545	0.75175	-7.71627	-4.05773	-0.909406	6.68198
0.5620	-2.81975	-2.31405	-3.95127	-1.38537	-6.79032	-4.36701	-3.03135	4.84594
0.5627	0.53431	-2.91399	-5.7922	-3.52249	-4.35969	-1.31134	-3.03135	7.901
0.5633	1.45083	0.142843	-3.36756	-3.82855	-4.05104	-0.705154	-0.909406	8.50298
0.5640	0.53431	1.05704	11.315	-2.30358	-4.05104	-2.83299	-0.303135	3.32594
0.5647	2.06314	0.428528	14.0539	-0.166459	-2.52708	-2.2268	-1.51568	0.571882
0.5653	4.80879	1.34272	0.314305	-1.69144	-1.90978	-0.705154	-2.12195	2.10693
0.5660	4.80879	1.65697	-4.57988	-1.99751	-3.12509	-0.0865979	-2.42508	2.40792
0.5667	3.89228	-0.171411	-2.42464	-0.166459	-2.52708	0.210309	-3.03135	0.270891
0.5673	3.58807	-1.39986	-6.37591	-2.60965	-0.385814	-0.395876	-2.72822	-2.16713
0.5680	2.97576	-0.171411	-5.7922	-5.04746	-1.29248	-1.31134	-2.12195	-4.00317
0.5687	-0.0741014	0.142843	-2.42464	-1.69144	-3.74239	-1.00206	-2.12195	-5.83921
0.5693	-3.73627	-0.77135	-7.31883	0.139611	-3.74239	-1.00206	-1.81881	-6.75723
0.5700	-1.59903	-1.0856	-9.15976	-3.21642	-1.29248	-1.31134	-1.21254	-4.6202
0.5707	1.14662	-1.39986	-1.84093	-2.60965	0.829499	-2.2268	-0.909406	-2.48317
0.5713	-0.990619	-1.9998	0.942916	0.44568	2.0641	-2.2268	-0.606271	-1.86614
0.5720	-2.21134	-2.91399	0	-1.38537	3.27942	-1.31134	-1.21254	0.872872
0.5727	-0.378307	-5.65657	-0.58371	-5.04746	3.58807	-0.705154	-1.21254	3.32594
0.5733	-0.686413	-8.7134	-4.26557	-3.52249	3.27942	-1.31134	-0.606271	0.571882
0.5740	-1.59903	-9.02765	-7.00452	-0.778598	3.58807	1.43505	-1.21254	-3.08515
0.5747	-0.686413	-8.7134	-4.57988	-0.778598	4.18608	6.61855	-0.303135	-3.38614
0.5753	1.14662	-8.7134	-4.57988	-1.69144	4.18608	7.8433	0.606271	-4.92119
0.5760	1.75503	-7.48495	-5.47789	-1.69144	4.49473	8.15257	-0.303135	-4.92119
0.5767	-0.0741014	-6.88501	-3.63696	-2.91035	5.42068	9.06804	-0.909406	-2.78416
0.5773	-2.81975	-7.79921	-4.84928	-3.21642	5.71004	7.8433	0.606271	-5.22218
0.5780	-3.43207	-9.62759	-6.69022	-1.69144	5.42068	7.23711	-0.303135	-8.27723
0.5787	-2.21134	-12.0845	-4.26557	-1.99751	5.11203	6.92783	-2.72822	-4.92119
0.5793	-2.51555	-11.1703	-1.84093	-1.99751	5.42068	2.35051	-1.21254	-4.6202
0.5800	-3.43207	-7.19927	-3.05325	-0.166459	6.94465	-0.395876	-1.51568	-9.49624
0.5807	-3.73627	-5.97082	-3.63696	0.44568	7.2533	2.04124	-3.33449	-9.49624
0.5813	-3.73627	-6.88501	-3.05325	-0.166459	6.01869	-0.705154	-0.606271	-7.35921
0.5820	-4.04048	-7.48495	-2.42464	0.139611	6.01869	-5.28247	-0.303135	-8.87921
0.5827	-4.65279	-7.19927	-2.73895	-0.166459	6.94465	-1.31134	-4.85017	-7.6602
0.5833	-4.34858	-5.97082	-3.95127	0.139611	6.94465	4.18144	-5.75957	-2.16713
0.5840	-3.12786	-5.37088	-3.63696	3.80171	7.54266	1.43505	-3.94076	-2.16713
0.5847	-3.43207	-5.97082	-2.42464	5.63275	7.54266	-2.83299	-4.85017	-4.00317
0.5853	-2.81975	-4.14244	-1.21232	2.8835	4.80338	-0.395876	-3.94076	-1.56515
0.5860	0.842416	-2.91399	1.21232	0.44568	-0.0771627	4.18144	-3.03135	1.4899
0.5867	2.36735	-4.45669	2.46954	0.75175	-3.43374	6.32165	-4.85017	0.872872
0.5873	1.75503	-5.65657	0.314305	0.139611	-4.05104	4.49072	-2.12195	0.571882
0.5880	3.28386	-5.97082	-0.58371	-1.0793	-1.60113	2.35051	1.81881	1.18891
0.5887	3.58807	-6.57076	-1.84093	-0.472529	0.540139	2.35051	-1.21254	0.571882
0.5893	-0.378307	-6.57076	-6.1065	1.35852	-0.694465	3.26598	-4.54703	-0.346139
0.5900	-1.90714	-5.65657	-9.74347	2.27673	-2.21843	2.65979	-1.81881	-0.346139
0.5907	-0.990619	-5.65657	-12.7967	1.97066	-1.29248	1.43505	-1.21254	-0.948119
0.5913	-1.90714	-5.37088	-14.6377	1.97066	0.540139	2.35051	-5.75957	-1.56515
0.5920	-2.51555	-5.97082	-12.7967	0.75175	1.4468	2.65979	-6.74476	1.4899
0.5927	-1.59903	-7.79921	-12.213	0.75175	2.0641	-0.395876	-3.03135	5.76396
0.5933	-2.21134	-9.34191	-13.111	3.18957	1.13815	-1.62062	-1.51568	4.22891
0.5940	-1.90714	-9.94184	-6.37591	3.49564	-2.21843	-0.395876	-3.03135	2.10693
0.5947	-0.0741014	-9.62759	2.73895	0.139611	-4.05104	-1.31134	-3.94076	5.14693
0.5953	-0.686413	-7.19927	3.68186	-1.0793	-1.60113	-1.31134	-3.94076	6.36594
0.5960	-1.59903	-6.28507	-6.37591	1.05245	-0.385814	2.9567	-2.72822	3.92792
0.5967	1.14662	-6.28507	-21.9565	1.05245	-2.21843	3.57526	-1.21254	2.40792
0.5973	0.53431	-5.05663	-30.8019	-0.778598	-3.12509	-0.0865979	-3.03135	-0.346139
0.5980	-1.90714	-5.05663	-29.9039	0.44568	-2.21843	-2.83299	-4.85017	-2.16713
0.5987	-1.29483	-4.74237	-30.2182	1.35852	-3.12509	-3.45155	-3.63762	2.10693
0.5993	-2.51555	-1.39986	-27.4344	-1.0793	-4.05104	-1.91753	-0.909406	4.84594
0.6000	-7.39844	-0.77135	-11.8987	-2.30358	-2.52708	0.519587	-0.909406	1.18891
0.6007	-8.01076	-4.14244	-2.73895	-0.778598	-1.60113	-0.705154	-2.12195	0.571882
0.6013	-4.957	-4.74237	-13.7396	-0.778598	-1.29248	-2.53608	-3.33449	3.32594
0.6020	-4.34858	-5.05663	-21.9565	-1.69144	-0.385814	-0.705154	-3.94076	2.40792
0.6027	-4.34858	-6.57076	-9.74347	-0.778598	0.540139	1.12577	-1.21254	3.92792
0.6033	-4.65279	-5.05663	10.6864	0.44568	2.97077	0.210309	1.21254	8.50298
0.6040	-5.2612	-3.22824	21.0585	1.66459	5.71004	-0.705154	-0.909406	7.6
0.6047	-2.21134	-4.45669	16.4786	2.5828	6.32734	-1.62062	-2.42508	1.79089
0.6053	1.14662	-3.5425	8.26174	1.97066	5.11203	-2.2268	-0.303135	-0.647129
0.6060	-0.686413	-2.31405	8.84545	-0.778598	3.58807	-1.00206	0.606271	-0.346139
0.6067	-1.59903	-2.6283	16.4786	-1.99751	5.11203	0.828866	-2.12195	-0.948119
0.6073	0.53431	-1.39986	22.0014	-0.166459	6.94465	-0.0865979	-4.85017	-3.38614
0.6080	-0.378307	1.34272	18.6338	1.35852	5.11203	-2.53608	-5.45644	-5.83921
0.6087	-1.59903	1.34272	5.7922	0.75175	4.18608	-2.2268	-3.33449	-5.83921
0.6093	1.14662	0.428528	-3.36756	-0.472529	7.2533	0.210309	-2.12195	-7.97624
0.6100	1.75503	-0.171411	-5.7922	-1.0793	8.15996	0.519587	-2.72822	-14.6883
0.6107	-0.990619	-1.71411	-13.7396	-1.69144	7.2533	-0.705154	-3.03135	-20.7834
0.6113	-2.21134	-1.71411	-15.5357	-1.69144	8.46861	-0.705154	-3.03135	-24.7565
0.6120	-0.686413	0.142843	-1.84093	-0.778598	9.68392	0.519587	-3.94076	-25.9755
0.6127	0.53431	1.65697	-3.63696	-2.30358	10.6099	2.35051	-3.03135	-22.0024
0.6133	1.14662	2.25691	-25.324	-4.44069	11.2079	3.26598	-2.42508	-15.9073
0.6140	0.53431	2.57117	-31.7448	-2.60965	11.2079	2.04124	-3.63762	-10.1133
0.6147	-0.0741014	1.97123	-25.324	-1.0793	11.5165	2.35051	-2.42508	-1.26416
0.6153	0.53431	2.25691	-27.4344	-1.69144	10.8992	2.9567	-1.81881	6.36594
0.6160	0.53431	3.17111	-28.6916	-1.69144	7.85131	0.828866	-3.94076	6.98297
0.6167	1.14662	2.25691	-27.4344	-2.91035	4.80338	-1.00206	-3.63762	6.06495
0.6173	2.67155	1.34272	-33.8552	-5.35353	-0.385814	-0.705154	-0.606271	6.98297
0.6180	3.58807	1.34272	-29.9039	-4.44069	-5.88366	0.828866	-2.12195	5.76396
0.6187	3.58807	2.25691	-17.3766	-2.91035	-5.88366	2.35051	-4.85017	6.68198
0.6193	4.19648	2.88542	-27.7487	-3.52249	-4.05104	1.43505	-3.94076	14.6131
0.6200	3.58807	1.34272	-47.5948	-3.52249	-4.95771	-0.395876	-3.03135	18.8871
0.6207	2.06314	-0.485665	-40.276	-2.60965	-4.64905	-1.00206	-2.42508	13.6951
0.6213	2.36735	0.742782	-22.5851	-2.60965	-4.95771	-4.05773	-1.81881	6.98297
0.6220	2.97576	2.25691	-21.0585	-2.60965	-7.71627	-6.80412	-1.21254	3.0099
0.6227	2.97576	-1.39986	-15.2663	-1.99751	-7.40762	-4.97319	-2.12195	-1.86614
0.6233	2.06314	-4.45669	13.4253	-2.60965	-6.17302	-4.05773	-3.03135	-5.83921
0.6240	-0.0741014	-0.77135	42.1169	-1.69144	-8.93159	-5.88866	-1.21254	-9.79723
0.6247	0.842416	3.17111	54.9585	0.75175	-9.24024	-4.36701	0.909406	-9.49624
0.6253	4.19648	-0.485665	61.9631	0.75175	-7.09897	-5.88866	0.606271	1.4899
0.6260	2.97576	-5.97082	61.065	-0.778598	-8.00563	-16.268	-1.81881	13.0931
0.6267	1.45083	-2.6283	35.4267	-1.69144	-8.31428	-25.4227	-2.42508	9.72199
0.6273	4.50459	2.88542	1.52663	-3.21642	-6.17302	-26.3381	-1.21254	-0.346139
0.6280	2.97576	0.428528	-5.16359	-3.52249	-5.57501	-22.0701	-0.303135	-4.92119
0.6287	-2.21134	-2.31405	3.68186	-0.472529	-5.57501	-14.4371	-0.303135	-6.75723
0.6293	1.45083	0.742782	-0.58371	1.66459	-4.05104	-5.88866	-1.81881	-4.00317
0.6300	6.02952	2.57117	2.46954	-0.778598	-2.21843	-0.395876	-1.51568	3.62693
0.6307	1.14662	0.428528	22.8994	-1.69144	-0.694465	2.35051	0.606271	2.10693
0.6313	-2.51555	2.25691	22.8994	-0.472529	0.231488	3.26598	0	-9.49624
0.6320	-0.0741014	4.99949	8.57605	-1.0793	0.231488	4.18144	-1.81881	-17.7434
0.6327	0.230104	4.0853	20.7442	-3.52249	0.231488	6.61855	-0.909406	-22.6194
0.6333	-1.90714	4.99949	30.2182	-2.60965	-0.0771627	6.92783	-0.303135	-23.2365
0.6340	-0.0741014	6.54219	3.68186	-0.472529	-0.0771627	6.01237	-2.12195	-7.6602
0.6347	2.97576	3.17111	-7.90254	-0.166459	1.75545	9.06804	-3.03135	8.20199
0.6353	2.67155	1.34272	17.4215	0.139611	3.89672	12.7299	-2.72822	6.06495
0.6360	0.53431	4.99949	24.426	1.05245	5.42068	10.899	-3.03135	-0.346139
0.6367	-0.990619	7.77064	1.21232	-1.38537	5.71004	9.9835	-3.94076	2.40792
0.6373	-3.73627	6.85645	-14.6377	-3.21642	2.66211	11.1959	-4.54703	6.98297
0.6380	-6.79003	6.54219	-20.7442	-0.472529	-0.0771627	7.23711	-3.94076	9.72199
0.6387	-6.17772	7.45638	-16.1643	1.05245	0.540139	1.74433	-1.51568	13.3941
0.6393	-4.34858	7.77064	22.0014	-0.778598	1.13815	-0.395876	-1.81881	17.0511
0.6400	-5.87351	6.85645	68.0696	0.139611	-1.29248	-1.31134	-4.85017	21.3252
0.6407	-7.39844	3.48536	77.2293	0.75175	-1.29248	-2.2268	-6.06271	25.2982
0.6413	-4.65279	1.34272	65.0163	-2.30358	1.13815	-2.2268	-4.85017	20.4071
0.6420	-2.51555	2.57117	63.1754	-1.69144	3.27942	-1.91753	-5.45644	6.98297
0.6427	-3.73627	3.79961	61.065	0.75175	5.11203	1.43505	-4.85017	-3.70218
0.6433	-4.957	4.39955	48.2234	-1.0793	4.18608	6.92783	-3.03135	-5.83921
0.6440	-3.43207	7.77064	38.7494	-1.99751	-0.385814	9.36494	-2.12195	-5.83921
0.6447	0.230104	9.59902	36.3247	0.139611	-1.90978	9.36494	0.606271	-8.57822
0.6453	2.06314	5.31375	30.5325	0.44568	-1.00312	8.75876	2.72822	-8.57822
0.6460	-0.686413	0.742782	17.4215	-0.778598	-2.21843	4.18144	-0.606271	-6.1402
0.6467	-2.51555	-0.485665	3.68186	-1.69144	-2.21843	-2.2268	-3.94076	-7.35921
0.6473	-0.686413	-0.485665	-5.16359	-3.21642	4.18608	-7.41031	-2.42508	-9.79723
0.6480	-0.0741014	-0.77135	-12.4824	-2.60965	10.6099	-10.1567	-2.12195	-9.19525
0.6487	0.842416	-1.39986	-27.4344	-0.778598	12.4425	-9.55051	-3.03135	-11.3323
0.6493	3.89228	-3.22824	-45.1702	-1.69144	11.5165	-7.71958	-1.81881	-15.9073
0.6500	4.80879	-4.14244	-51.2767	-3.21642	9.37527	-7.71958	-2.42508	-14.6883
0.6507	2.97576	-4.14244	-40.276	-2.60965	4.49473	-7.71958	-3.03135	-5.83921
0.6513	1.75503	-6.57076	-28.3773	-1.0793	-0.385814	-5.88866	0.606271	3.0099
0.6520	1.14662	-9.94184	-25.0097	0.139611	-2.52708	-5.88866	-0.303135	7.901
0.6527	1.14662	-12.0845	-20.7442	-1.0793	-6.79032	-8.32577	-4.85017	8.81902
0.6533	1.45083	-12.9987	-3.95127	-3.52249	-11.9795	-9.55051	-3.94076	6.98297
0.6540	1.14662	-14.5128	17.4215	-3.21642	2.66211	-4.66392	-1.51568	3.92792
0.6547	1.14662	-15.427	27.4793	-0.778598	32.8713	5.09691	-4.85017	1.79089
0.6553	2.97576	-14.8271	22.8994	-0.166459	51.4868	12.7299	-4.85017	3.32594
0.6560	3.89228	-13.9129	17.1072	0.139611	67.3631	14.8577	-2.12195	5.76396
0.6567	2.97576	-14.8271	16.4786	0.139611	89.6438	12.1113	-3.94076	5.14693
0.6573	3.28386	-15.7413	13.4253	-1.99751	93.0004	6.61855	-7.35103	3.32594
0.6580	3.89228	-14.8271	7.31883	-3.82855	84.7633	2.35051	-7.0479	-0.030099
0.6587	1.14662	-14.1986	3.36756	-2.60965	88.4285	0.519587	-6.36584	-3.08515
0.6593	-2.51555	-16.0555	-1.84093	0.139611	89.6438	0.210309	-7.65417	-2.48317
0.6600	-3.43207	-16.6554	-12.213	1.05245	91.7851	-0.395876	-8.56357	-1.26416
0.6607	-2.51555	-16.0555	-24.6954	-0.166459	82.9306	-1.31134	-7.65417	-4.6202
0.6613	-2.51555	-17.8839	-32.9572	-0.778598	6.01869	-1.31134	-5.45644	-6.44119
0.6620	-3.73627	-18.7981	-35.0675	-0.166459	-91.9394	0.519587	-5.75957	-5.22218
0.6627	-4.34858	-13.9129	-38.7494	1.05245	-99.2699	2.35051	-7.35103	-7.6602
0.6633	-3.43207	-10.5418	-46.0682	2.5828	-46.1626	2.04124	-6.74476	-12.8523
0.6640	-2.81975	-14.1986	-36.9084	1.35852	-26.9298	-0.705154	-3.33449	-11.9343
0.6647	-3.43207	-15.427	-8.53115	0.139611	-32.4276	-4.66392	-1.21254	-5.22218
0.6653	-1.59903	-11.456	9.78837	0.139611	-31.2123	-5.88866	-0.909406	-1.26416
0.6660	2.06314	-11.456	4.26557	-0.778598	-27.8557	-6.19794	-0.303135	-4.00317
0.6667	4.80879	-15.1413	-8.84545	-2.60965	-16.8601	-9.55051	-0.303135	-4.92119
0.6673	3.28386	-16.3412	-18.5889	-0.778598	-0.694465	-10.466	-0.303135	4.84594
0.6680	0.53431	-13.2844	-21.9565	0.75175	-1.90978	-7.71958	1.51568	18.2701
0.6687	0.230104	-9.94184	-18.0052	-1.0793	-29.3797	-11.0722	5.53222	26.2012
0.6693	2.36735	-8.7134	-14.3233	-2.60965	-73.0152	-15.3526	7.0479	26.5172
0.6700	2.97576	-10.5418	-14.3233	-1.69144	-102.916	-13.5216	6.44163	20.7081
0.6707	2.06314	-12.3702	-9.74347	-0.166459	-98.3439	-15.0433	4.92595	13.6951
0.6713	2.36735	-9.02765	-9.15976	-0.778598	-78.2044	-20.5361	1.21254	12.476
0.6720	3.89228	-5.05663	-32.9572	-1.69144	-61.7302	-18.7051	-3.03135	13.3941
0.6727	4.80879	-5.05663	-68.6533	0.139611	-47.3779	-14.4371	-0.606271	7.901
0.6733	5.72531	-5.97082	-76.6007	0.75175	-44.6386	-16.5649	2.42508	2.10693
0.6740	6.63793	-5.37088	-62.8611	-0.778598	-51.0431	-19.6206	-1.21254	-5.52317
0.6747	5.72531	-6.28507	-60.3915	0.75175	-48.9019	-21.7608	-2.72822	-20.4824
0.6753	4.80879	-8.11346	-61.3345	3.18957	-38.2341	-24.1979	3.63762	-29.6325
0.6760	3.89228	-8.11346	-56.4403	0.44568	-24.1905	-24.8165	7.65417	-23.2365
0.6767	2.97576	-8.11346	-58.5955	-1.38537	-4.05104	-23.5917	5.22908	-13.1533
0.6773	1.14662	-7.19927	-40.276	0.44568	12.1338	-18.3959	4.92595	-0.948119
0.6780	-0.686413	-4.14244	16.7929	0.44568	18.2297	-4.97319	5.22908	10.64
0.6787	-1.59903	-3.22824	46.1131	-0.778598	33.7973	5.70309	3.33449	-0.030099
0.6793	-1.59903	-4.74237	13.4253	0.139611	60.6499	7.8433	1.51568	-28.1125
0.6800	-2.51555	-3.5425	-20.7442	0.139611	76.5261	7.53402	1.81881	-38.1806
0.6807	-4.957	-1.71411	-22.5851	-0.778598	84.146	3.57526	1.81881	-24.1394
0.6813	-4.957	-0.485665	-15.5357	-1.69144	95.4503	-2.2268	0	-8.57822
0.6820	-1.59903	2.25691	-9.15976	-2.60965	97.2636	-0.705154	-2.42508	5.46297
0.6827	-0.990619	3.48536	3.68186	-0.778598	89.3352	3.26598	-3.03135	21.0242
0.6833	-4.34858	3.17111	22.5851	1.97066	80.7894	4.49072	-2.42508	28.3382
0.6840	-4.34858	5.94225	32.0592	0.75175	29.8234	9.9835	-1.81881	20.1062
0.6847	-1.59903	8.97052	8.26174	0.139611	-76.0632	15.7732	-0.303135	1.79089
0.6853	-2.21134	8.05632	-25.6383	0.75175	-149.927	12.1113	0.606271	-17.7434
0.6860	-2.51555	8.68483	-32.0143	-1.38537	-134.958	7.53402	-1.51568	-34.2226
0.6867	0.230104	10.5132	-42.1169	-1.38537	-89.7981	7.8433	-3.33449	-44.2907
0.6873	0.230104	8.05632	-70.1799	1.97066	-66.6107	5.70309	-3.03135	-42.7557
0.6880	-2.51555	4.99949	-58.9098	1.35852	-54.0911	2.35051	-1.21254	-36.9616
0.6887	-1.90714	4.99949	-8.21684	-0.778598	-44.9473	3.57526	-0.303135	-39.7157
0.6893	-0.686413	5.31375	31.4305	0.139611	-44.9473	3.26598	-1.51568	-47.6468
0.6900	-2.81975	2.57117	76.017	0.139611	-41.2821	2.35051	-2.72822	-47.9478
0.6907	-4.34858	-0.77135	127.249	-1.99751	-29.0711	6.92783	-2.42508	-36.0436
0.6913	-3.43207	-1.39986	122.4	-1.69144	-22.0492	11.5051	-3.03135	-23.5374
0.6920	-1.90714	1.34272	75.0741	0.139611	-18.6927	9.67422	-2.72822	-22.0024
0.6927	-0.686413	1.65697	57.6975	1.05245	-9.5296	6.92783	-1.81881	-23.5374
0.6933	-1.59903	0.142843	68.9676	0.75175	-7.09897	4.18144	-3.33449	-10.4143
0.6940	-1.59903	1.05704	78.1273	-0.778598	-18.0754	-1.00206	-3.03135	14.9141
0.6947	0.842416	2.25691	81.1806	-0.778598	-28.7624	-1.91753	0.606271	31.3933
0.6953	0.53431	0.142843	70.8085	1.05245	-33.0449	2.35051	0.606271	32.6123
0.6960	-0.378307	-0.77135	52.489	1.05245	-31.2123	5.09691	-1.81881	30.7913
0.6967	2.36735	2.88542	39.378	-0.778598	-22.3579	8.15257	0	33.2293
0.6973	3.28386	6.54219	22.5851	0.139611	-16.262	12.4206	1.51568	38.1054
0.6980	1.14662	7.77064	19.2175	1.66459	-13.5035	12.7299	-0.303135	42.9965
0.6987	2.67155	7.77064	47.0111	-0.472529	0.540139	12.4206	-1.51568	42.6955
0.6993	3.89228	5.94225	61.6488	-2.91035	20.0623	16.0825	-3.33449	35.0654
0.7000	1.14662	4.0853	42.7455	-1.69144	34.4146	16.9979	-6.06271	26.2012
0.7007	-0.0741014	3.48536	34.4838	-1.69144	56.9847	14.5608	-7.65417	19.1881
0.7013	-0.0741014	3.17111	42.4312	-4.44069	86.5959	13.6454	-8.56357	12.476
0.7020	-2.81975	3.79961	35.6961	-3.21642	101.237	12.4206	-10.0793	8.50298
0.7027	-3.73627	4.0853	21.3728	1.05245	107.642	9.36494	-11.2918	10.64
0.7033	-4.04048	1.65697	14.6377	0.75175	127.781	6.92783	-12.2012	13.3941
0.7040	-6.17772	0.428528	8.57605	-2.30358	160.132	6.01237	-12.5043	13.3941
0.7047	-5.87351	1.65697	3.36756	-2.30358	180.58	6.32165	-10.0793	13.6951
0.7053	-4.34858	-0.485665	-0.898015	-2.30358	158.608	8.15257	-5.75957	12.777
0.7060	-5.87351	-7.79921	-7.63313	-3.21642	82.0047	9.9835	-1.51568	10.038
0.7067	-5.56931	-15.1413	-9.74347	-1.69144	-5.26636	8.75876	1.51568	9.421
0.7073	-3.43207	-23.3691	-9.15976	0.139611	-47.6866	6.92783	1.51568	9.72199
0.7080	-3.73627	-29.1685	-18.3195	-0.472529	-72.1086	6.61855	0	8.50298
0.7087	-2.81975	-24.5975	-27.4344	-0.472529	-121.531	5.70309	-0.303135	8.81902
0.7093	0.230104	-16.9697	-21.0585	-1.0793	-139.549	4.18144	-2.12195	11.257
0.7100	-0.686413	-16.3412	-12.7967	-4.44069	-74.2305	4.18144	-3.63762	13.996
0.7107	-2.51555	-16.9697	-15.5357	-4.44069	12.7318	4.18144	-3.03135	16.1331
0.7113	-0.686413	-11.456	-20.1155	-0.778598	50.2715	3.26598	-3.03135	14.6131
0.7120	-0.990619	-5.97082	-17.3766	-0.166459	43.867	2.35051	-4.85017	8.81902
0.7127	-4.34858	-3.5425	-14.009	-1.69144	38.3692	0.519587	-4.85017	5.76396
0.7133	-4.34858	-0.485665	-12.7967	0.139611	64.6238	0.828866	-5.45644	6.68198
0.7140	-3.73627	3.17111	-14.3233	0.44568	94.833	2.35051	-7.0479	6.98297
0.7147	-5.56931	6.54219	-24.3811	-3.21642	96.0483	1.43505	-7.0479	4.22891
0.7153	-4.957	11.7131	-34.1695	-3.82855	86.2872	-0.705154	-5.1533	0.571882
0.7160	-3.43207	14.7699	-31.1162	-1.99751	50.8888	-1.31134	-3.33449	-1.26416
0.7167	-6.17772	9.88471	-31.1162	-1.69144	-36.9995	-2.2268	-2.12195	-0.346139
0.7173	-7.39844	1.05704	-46.9662	-1.69144	-104.44	-2.2268	-3.03135	-1.86614
0.7180	-5.56931	-6.28507	-60.1221	-0.472529	-106.272	-1.62062	-4.2439	-7.05822
0.7187	-7.09424	-11.7702	-59.4935	-0.166459	-104.748	-1.91753	-3.33449	-10.4143
0.7193	-9.83989	-13.5986	-55.5423	0.139611	-114.818	-1.91753	-1.21254	-10.7153
0.7200	-9.23148	-11.456	-47.5948	0.44568	-107.198	0.828866	2.42508	-12.5513
0.7207	-8.01076	-10.5418	-36.3247	-0.166459	-100.177	2.35051	7.9573	-12.5513
0.7213	-7.70265	-10.2561	-22.5851	0.139611	-91.0134	-0.0865979	12.5043	-7.6602
0.7220	-6.17772	-7.19927	-1.84093	0.44568	-64.1608	-1.91753	14.02	-3.38614
0.7227	-5.87351	-7.79921	12.8416	-0.472529	-50.7345	-1.31134	13.4137	-1.26416
0.7233	-6.48193	-10.2561	7.04942	-0.166459	-64.4695	-0.395876	10.3824	2.70891
0.7240	-5.2612	-8.7134	0	0.75175	-82.4677	-2.2268	6.44163	4.84594
0.7247	-3.43207	-8.42771	0.942916	0.139611	-90.1068	-3.14227	4.2439	1.4899
0.7253	-5.2612	-9.62759	-10.6864	-0.778598	-68.1347	-1.91753	0.606271	-2.16713
0.7260	-7.09424	-5.05663	-27.4344	-1.38537	-25.4058	-1.00206	-1.21254	-0.647129
0.7267	-4.65279	-1.39986	-26.5364	-2.60965	-9.5296	-0.705154	-0.909406	2.70891
0.7273	-0.990619	-4.14244	-20.1155	-1.69144	-16.262	-2.2268	-3.03135	1.4899
0.7280	-1.90714	-3.5425	-22.2708	0.139611	-7.71627	-4.05773	-5.75957	-4.30416
0.7287	-3.43207	-0.485665	-25.0097	1.05245	3.27942	-2.2268	-4.2439	-7.6602
0.7293	-0.686413	-1.39986	-30.2182	1.35852	-6.79032	0.519587	-1.81881	-7.6602
0.7300	2.36735	-0.485665	-48.4928	-0.166459	-11.3622	-0.0865979	0	-11.0162
0.7307	2.06314	1.34272	-69.5513	-2.91035	-11.3622	-1.31134	3.33449	-17.1263
0.7313	2.97576	-1.0856	-71.3922	-0.778598	-33.0449	-0.0865979	4.54703	-17.4273
0.7320	4.50459	-2.31405	-41.4883	1.66459	-55.017	2.35051	3.33449	-7.97624
0.7327	3.58807	-1.71411	8.84545	-0.166459	-45.2366	5.09691	3.33449	7.28397
0.7333	1.45083	-4.14244	53.1176	-0.778598	-32.7363	5.40618	2.42508	23.4622
0.7340	0.230104	-4.45669	70.8085	0.44568	-40.0475	3.26598	-0.303135	29.2563
0.7347	-0.990619	-3.22824	67.1716	-0.472529	-46.7799	4.18144	0.606271	20.7081
0.7353	-0.686413	-3.82818	61.3345	0.139611	-49.5192	6.32165	-0.303135	7.6
0.7360	1.75503	-4.14244	59.2241	1.35852	-56.2323	4.18144	-4.2439	-1.86614
0.7367	1.45083	-5.97082	50.0644	-1.38537	-59.2803	3.26598	-5.45644	-7.05822
0.7373	-0.990619	-13.5986	32.0592	-4.44069	-60.8042	4.78763	-4.2439	-7.05822
0.7380	-2.51555	-18.1696	17.4215	-3.52249	-54.0911	1.43505	-6.36584	-5.52317
0.7387	-2.81975	-20.6265	8.26174	-1.99751	-25.0972	-1.91753	-8.26044	-8.27723
0.7393	-2.21134	-34.6536	-1.84093	-1.69144	-0.0771627	0.828866	-5.75957	-8.57822
0.7400	0.230104	-52.3661	-12.4824	-0.778598	4.80338	0.519587	-1.21254	-5.83921
0.7407	2.06314	-57.537	-23.7974	-0.778598	20.0623	-4.05773	3.03135	-7.6602
0.7413	0.230104	-50.8234	-41.8026	-1.69144	49.9629	-4.36701	2.42508	-7.97624
0.7420	-0.990619	-39.8531	-63.4448	-2.60965	69.1957	-1.91753	-1.51568	2.40792
0.7427	2.06314	-25.5117	-69.8656	-0.472529	81.098	-2.83299	-2.12195	10.038
0.7433	4.50459	-10.5418	-61.0201	0.75175	93.907	-6.19794	-0.606271	4.54495
0.7440	2.97576	2.25691	-52.489	-2.30358	96.0483	-7.71958	-0.606271	-4.92119
0.7447	1.45083	12.3416	-35.6961	-3.82855	88.4285	-4.36701	-0.909406	-7.97624
0.7453	2.97576	23.3119	0.942916	-0.472529	81.4067	-4.97319	-2.12195	0.571882
0.7460	4.80879	38.8818	26.5813	1.05245	81.7153	-15.0433	-2.72822	15.2151
0.7467	6.02952	53.5374	16.4786	0.139611	90.8591	-23.2825	-0.909406	17.6681
0.7473	6.33372	64.222	-7.90254	1.66459	101.237	-22.0701	0.606271	4.84594
0.7480	4.80879	73.364	-27.7487	3.18957	100.62	-20.2268	1.21254	-9.19525
0.7487	3.89228	73.6782	-43.6436	2.27673	85.6699	-17.7897	1.21254	-15.2903
0.7493	5.113	57.1942	-39.9617	1.97066	73.4782	-6.80412	-2.12195	-10.4143
0.7500	5.41721	35.8249	-17.3766	1.35852	80.1914	4.18144	-3.63762	-0.030099
0.7507	3.28386	23.9404	-11.8987	0.44568	93.907	5.09691	-0.303135	1.4899
0.7513	0.53431	19.0552	-32.0143	0.139611	98.4982	5.09691	1.81881	-6.44119
0.7520	-1.59903	14.17	-43.0149	-0.778598	87.1939	5.09691	1.21254	-8.27723
0.7527	-1.90714	9.88471	-37.8513	-0.778598	33.4886	0.519587	3.63762	-2.16713
0.7533	-1.59903	6.54219	-38.7494	0.44568	-54.3997	-1.62062	5.83536	6.06495
0.7540	-3.43207	2.88542	-40.276	-0.778598	-101.083	-1.62062	3.33449	15.8321
0.7547	-3.73627	-0.485665	-30.2182	-2.60965	-79.7284	-5.57938	0.909406	22.8452
0.7553	-0.686413	-2.31405	-21.0585	-1.0793	-40.3561	-4.97319	0.606271	24.6812
0.7560	0.230104	-2.6283	-14.6377	-0.166459	-6.17302	2.35051	-0.303135	28.0372
0.7567	-1.29483	-3.82818	-3.95127	-0.778598	23.4189	4.18144	-0.606271	26.2012
0.7573	-0.686413	-6.88501	3.05325	-0.166459	35.3212	1.74433	-1.21254	10.339
0.7580	0.53431	-9.62759	7.04942	-1.38537	40.5104	3.26598	-3.03135	0.872872
0.7587	-0.686413	-11.456	26.5813	-2.60965	52.1041	0.519587	-3.94076	14.3121
0.7593	-0.686413	-12.3702	58.5955	0.44568	57.2933	-8.63505	-3.33449	24.3802
0.7600	0.53431	-13.2844	70.1799	1.97066	57.2933	-14.1278	-3.03135	6.06495
0.7607	-0.686413	-14.1986	49.4357	-1.38537	59.1259	-17.4804	-3.94076	-25.0574
0.7613	-0.686413	-12.6844	28.3773	-1.99751	51.4868	-23.5917	-3.63762	-47.6468
0.7620	3.89228	-9.62759	37.8513	0.139611	36.2279	-25.7319	-3.94076	-55.2769
0.7627	5.113	-9.34191	59.8078	-0.778598	10.8992	-21.4515	-7.65417	-47.9478
0.7633	1.45083	-14.1986	57.6975	-2.60965	-37.9255	-18.7051	-11.2918	-32.0856
0.7640	1.75503	-20.9407	14.3682	-1.69144	-78.2044	-17.1835	-11.5949	-19.5644
0.7647	3.89228	-20.6265	-67.1267	0.139611	-55.3064	-14.734	-12.8075	-12.2503
0.7653	2.36735	-15.427	-158.051	1.97066	9.99257	-11.0722	-15.5357	-6.44119
0.7660	2.36735	-17.8839	-225.222	1.97066	53.6281	-4.36701	-15.8388	-6.75723
0.7667	3.58807	-26.7116	-277.083	-0.166459	71.935	2.04124	-15.5357	-10.7153
0.7673	0.230104	-27.94	-308.199	-2.60965	86.5959	3.87216	-14.3231	-5.52317
0.7680	-1.90714	-19.998	-281.034	-2.60965	69.813	8.75876	-8.56357	3.92792
0.7687	-1.59903	-14.5128	-210.54	-0.472529	11.5165	20.3505	0	2.10693
0.7693	-4.34858	-12.9987	-136.992	-0.472529	-24.7885	27.9835	8.86671	-1.56515
0.7700	-5.2612	-10.2561	-54.3299	-1.69144	-12.2882	27.6742	17.1271	5.76396
0.7707	-3.43207	-6.28507	31.1611	-1.0793	-23.8819	29.8144	22.8867	11.558
0.7713	-2.51555	-2.6283	123.298	-1.38537	-104.748	35.6165	22.2804	8.81902
0.7720	-3.43207	0.142843	277.397	-1.99751	-184.091	38.0536	17.4303	5.46297
0.7727	-3.73627	0.142843	442.811	-0.472529	-179.828	36.2227	8.86671	-7.35921
0.7733	-4.34858	-1.39986	457.18	0.75175	-112.079	30.7299	-2.12195	-37.2626
0.7740	-4.34858	0.428528	317.718	-0.472529	-55.3064	25.5464	-7.35103	-69.002
0.7747	-3.12786	5.628	189.84	-0.778598	-30.595	22.4907	-4.54703	-82.4412
0.7753	-0.686413	8.37058	142.515	-0.778598	-12.2882	17.9134	-4.54703	-69.6191
0.7760	2.67155	4.71381	122.4	-0.778598	5.71004	10.899	-7.65417	-44.2907
0.7767	3.58807	-1.39986	93.3936	-0.472529	16.0884	10.5897	-6.74476	-35.1256
0.7773	1.45083	-4.45669	54.0156	-0.166459	20.371	14.5608	-4.54703	-40.6186
0.7780	-1.29483	-6.28507	13.1559	-0.778598	28.2994	12.4206	-5.45644	-31.4685
0.7787	-2.51555	-8.7134	0.628611	-2.91035	43.2497	8.75876	-4.85017	-4.00317
0.7793	-2.21134	-7.48495	31.1611	-5.35353	48.4389	8.75876	-0.606271	29.2563
0.7800	-2.51555	-1.71411	70.4942	-3.82855	31.3474	7.8433	2.12195	60.0777
0.7807	-3.73627	3.48536	77.813	-0.472529	9.68392	4.18144	3.33449	72.8998
0.7813	-4.34858	2.88542	60.4364	-1.38537	-15.6447	3.57526	5.53222	61.9137
0.7820	-5.56931	-4.14244	43.3292	-3.82855	-64.1608	4.49072	7.35103	44.5165
0.7827	-8.01076	-11.456	31.1611	-3.52249	-102.009	3.26598	7.0479	30.4753
0.7833	-6.79003	-14.1986	21.3728	-1.38537	-87.9655	2.35051	4.92595	19.1881
0.7840	-4.04048	-12.3702	8.26174	0.44568	-48.5932	3.26598	1.81881	14.9141
0.7847	-4.34858	-9.62759	-13.7396	-0.778598	-17.4774	2.9567	0.606271	12.777
0.7853	-4.34858	-9.34191	-19.5318	-2.91035	4.18608	1.74433	1.51568	3.92792
0.7860	-2.51555	-9.62759	2.73895	-1.0793	13.3492	0.519587	2.42508	-4.30416
0.7867	-2.81975	-9.62759	17.6909	0.139611	12.1338	-0.395876	1.51568	-1.86614
0.7873	-2.51555	-9.02765	15.2663	-2.30358	8.77726	-1.31134	-2.42508	6.36594
0.7880	-0.686413	-7.19927	21.6871	-1.69144	-4.05104	-3.14227	-7.0479	12.476
0.7887	-2.51555	-5.37088	20.1604	0.75175	-20.5253	-5.28247	-4.85017	13.3941
0.7893	-3.43207	-6.88501	-10.9558	-0.778598	-26.9298	-5.88866	0.303135	10.64
0.7900	0.842416	-8.7134	-40.9046	-3.21642	-24.7885	-5.88866	0	7.901
0.7907	2.67155	-8.11346	-51.5461	-3.82855	-14.1208	-4.97319	-2.42508	6.98297
0.7913	-0.378307	-8.11346	-58.2812	-3.52249	6.01869	-4.05773	-3.63762	9.12001
0.7920	0.230104	-8.42771	-53.0727	-2.60965	18.847	-5.88866	-6.74476	13.6951
0.7927	2.67155	-5.97082	-32.0143	-2.30358	20.6796	-9.55051	-8.86671	14.6131
0.7933	1.14662	-4.14244	-25.324	-2.30358	23.1102	-9.55051	-7.35103	7.901
0.7940	0.230104	-5.05663	-43.913	-0.166459	20.371	-6.80412	-4.85017	-2.16713
0.7947	2.36735	-6.28507	-67.441	1.97066	12.4425	-6.80412	-3.33449	-6.75723
0.7953	2.06314	-7.48495	-65.9143	1.05245	9.37527	-7.41031	-0.303135	-2.78416
0.7960	0.230104	-5.97082	-12.4824	-0.778598	9.37527	-6.80412	3.94076	2.40792
0.7967	1.75503	-4.14244	62.8611	-1.99751	10.6099	-7.71958	5.22908	0.571882
0.7973	2.67155	-5.65657	81.4949	-1.69144	15.1818	-9.85979	3.03135	-6.1402
0.7980	-1.59903	-5.97082	43.3292	-0.778598	20.969	-10.466	0.606271	-11.9343
0.7987	-3.43207	-2.6283	22.8994	-2.60965	28.2994	-11.0722	-2.42508	-15.6063
0.7993	0.53431	-3.22824	31.1611	-3.52249	30.132	-9.55051	-5.75957	-13.4693
0.8000	2.06314	-5.05663	28.3773	-2.30358	18.5383	-4.36701	-5.45644	-6.75723
0.8007	-0.686413	-2.91399	18.0052	-2.30358	15.7991	-3.14227	-3.03135	-4.30416
0.8013	-1.59903	-2.6283	10.3721	-2.30358	30.132	-6.49484	-5.45644	-6.75723
0.8020	-1.29483	-5.97082	-1.84093	0.139611	33.18	-6.80412	-7.35103	-6.1402
0.8027	-3.43207	-5.05663	-12.213	0.139611	29.2254	-4.97319	-4.2439	-4.92119
0.8033	-5.2612	-2.31405	-16.4786	-3.52249	42.343	-8.32577	-3.94076	-8.27723
0.8040	-4.34858	-3.22824	-22.5851	-3.52249	61.8652	-10.466	-7.0479	-10.1133
0.8047	-3.43207	-3.5425	-27.4344	-0.472529	80.1914	-6.80412	-6.74476	-9.49624
0.8053	-3.12786	-3.22824	-27.4344	1.05245	95.4503	-3.74845	-4.54703	-9.49624
0.8060	-2.51555	-5.97082	-26.5364	0.75175	105.211	-4.97319	-3.94076	-8.57822
0.8067	-2.51555	-9.34191	-24.6954	1.05245	126.258	-5.57938	-4.54703	-9.49624
0.8073	-2.51555	-12.3702	-22.8994	0.44568	133.588	-2.83299	-7.65417	-12.2503
0.8080	-1.59903	-16.0555	-24.1117	0.139611	69.1957	0.210309	-9.47298	-11.6333
0.8087	-1.29483	-18.7981	-26.222	0.139611	-12.2882	-2.83299	-7.35103	-11.0162
0.8093	-0.686413	-20.6265	-28.3773	0.44568	-13.1948	-9.55051	-7.9573	-12.2503
0.8100	0.230104	-23.6833	-28.3773	0.139611	31.9647	-9.55051	-10.9887	-10.1133
0.8107	-0.686413	-30.0827	-26.222	-0.472529	43.5584	-3.45155	-8.26044	-8.57822
0.8113	-0.686413	-35.8821	-28.6916	0.139611	37.1539	-4.66392	-4.54703	-10.4143
0.8120	1.14662	-34.6536	-32.0143	1.97066	52.1041	-10.7753	-6.74476	-7.97624
0.8127	2.36735	-25.7974	-27.4344	1.66459	74.6935	-13.8186	-9.47298	-4.00317
0.8133	2.06314	-15.427	-23.1688	-0.778598	70.1023	-20.5361	-5.75957	-6.44119
0.8140	3.28386	-3.22824	-24.6954	-0.472529	53.6281	-30.9155	0.606271	-7.35921
0.8147	2.97576	13.8557	-25.0097	0.75175	64.6238	-32.1402	4.54703	-4.6202
0.8153	-0.0741014	24.5404	-27.4344	-0.778598	63.3892	-25.7319	7.0479	-6.75723
0.8160	1.14662	24.5404	-32.9572	-0.472529	-8.93159	-20.2268	9.16984	-8.27723
0.8167	4.50459	24.2261	-35.6961	2.5828	-70.874	-13.2124	8.56357	-4.6202
0.8173	2.36735	26.9973	-45.1702	2.27673	-53.1844	-2.2268	3.63762	-6.75723
0.8180	-0.686413	27.5972	-63.7591	1.66459	-68.752	5.70309	2.72822	-15.9073
0.8187	3.58807	26.0831	-82.0786	1.97066	-167.925	6.92783	5.22908	-19.5644
0.8193	7.85865	17.8268	-96.1326	1.05245	-203.941	0.828866	1.21254	-18.0444
0.8200	5.113	3.48536	-97.0306	1.05245	-129.479	-7.71958	-6.06271	-15.9073
0.8207	2.06314	-5.37088	-87.2871	2.27673	-68.1347	-13.2124	-8.56357	-12.2503
0.8213	3.28386	-6.88501	-79.3397	0.44568	-50.7345	-11.6907	-9.47298	-6.75723
0.8220	3.58807	-11.7702	-51.5461	-0.778598	-22.3579	-6.80412	-10.3824	-2.16713
0.8227	1.75503	-15.1413	3.36756	1.05245	-8.00563	-5.28247	-9.47298	-1.26416
0.8233	2.06314	-11.7702	31.1611	2.27673	-22.3579	-10.7753	-8.56357	-1.86614
0.8240	3.58807	-12.6844	15.2663	1.97066	-19.6186	-14.4371	-8.56357	6.06495
0.8247	3.89228	-20.3122	3.36756	1.97066	6.63599	-11.3814	-9.47298	24.6812
0.8253	4.19648	-30.6826	2.73895	1.35852	33.7973	-10.466	-10.0793	41.1604
0.8260	2.36735	-45.6525	1.52663	0.75175	52.4128	-14.1278	-8.56357	42.9965
0.8267	-0.378307	-51.7376	17.4215	0.139611	49.3649	-16.268	-5.75957	35.0654
0.8273	0.842416	-35.8821	36.9533	-1.0793	26.1582	-19.6206	-3.94076	28.0372
0.8280	4.80879	-12.0845	32.3735	-0.778598	-17.1687	-26.6474	0	26.2012
0.8287	5.72531	2.25691	18.0052	2.27673	-83.3936	-27.2536	3.03135	28.9553
0.8293	3.58807	9.59902	3.68186	2.8835	-108.105	-20.2268	1.51568	30.7913
0.8300	4.19648	13.2558	-14.6377	1.35852	-36.0929	-14.734	2.72822	30.4753
0.8307	6.02952	15.9984	-17.6909	1.66459	73.1696	-10.466	6.13849	25.5992
0.8313	5.41721	23.3119	-2.73895	1.35852	147.94	-5.28247	2.72822	14.3121
0.8320	3.89228	37.3676	-2.42464	1.35852	182.104	1.12577	-2.12195	2.70891
0.8327	3.28386	59.6511	-25.324	3.18957	176.915	11.1959	-2.12195	-4.92119
0.8333	3.58807	77.9635	-39.6474	3.80171	147.323	23.7155	-5.45644	-8.87921
0.8340	4.50459	77.335	-21.9565	1.97066	136.945	30.1237	-10.3824	-8.57822
0.8347	5.113	60.8509	16.4786	2.5828	171.128	36.2227	-7.0479	-6.1402
0.8353	5.113	39.796	47.6397	2.27673	217.213	50.8701	-1.21254	-8.57822
0.8360	4.80879	16.9126	53.7013	-1.69144	191.884	63.9959	0.909406	-13.7703
0.8367	4.80879	2.88542	35.6961	-3.52249	70.1023	67.0515	5.53222	-17.4273
0.8373	4.50459	0.428528	14.6377	-1.69144	-49.5192	62.1649	10.6855	-19.5644
0.8380	4.80879	-2.6283	13.7396	-1.69144	-100.485	51.4886	9.16984	-15.9073
0.8387	5.72531	-11.456	16.4786	-2.60965	-128.862	38.9691	4.2439	-7.6602
0.8393	6.02952	-20.6265	0	-1.99751	-153.284	30.1237	1.21254	-3.08515
0.8400	4.19648	-27.94	-21.3728	-2.30358	-131.601	21.8845	0.606271	-3.08515
0.8407	3.89228	-29.7684	-34.7981	-2.91035	-76.3718	16.0825	1.21254	-0.030099
0.8413	4.80879	-25.5117	-47.5948	-1.69144	-74.8478	15.4763	2.12195	4.22891
0.8420	2.06314	-20.6265	-55.5423	-1.69144	-171.899	14.5608	5.22908	5.14693
0.8427	-1.59903	-16.6554	-50.3338	-3.21642	-268.333	11.5051	9.77612	3.32594
0.8433	-0.0741014	-13.2844	-38.4351	-2.91035	-240.246	11.5051	7.35103	-1.26416
0.8440	2.06314	-13.2844	-31.1162	-1.69144	-137.099	9.67422	-0.909406	-10.4143
0.8447	-0.686413	-15.427	-28.6916	-2.91035	-79.1111	6.01237	-2.72822	-17.1263
0.8453	-2.51555	-16.0555	-12.4824	-2.30358	-70.874	6.01237	-0.303135	-10.1133
0.8460	-1.90714	-16.9697	11.0007	0.139611	-79.4197	6.32165	-1.21254	2.40792
0.8467	-3.43207	-17.8839	2.46954	-0.472529	-102.318	2.9567	-2.12195	0.571882
0.8473	-5.2612	-16.6554	-17.0623	-1.69144	-111.172	2.35051	-1.21254	-5.52317
0.8480	-4.957	-15.1413	0	-0.472529	-94.0807	4.49072	-1.21254	3.32594
0.8487	-5.2612	-15.7413	11.0007	-0.472529	-68.1347	3.87216	-1.51568	14.6131
0.8493	-5.56931	-17.5696	-17.3766	-0.778598	-40.0475	1.43505	-2.12195	11.257
0.8500	-3.73627	-18.7981	-25.0097	0.75175	-31.521	-0.0865979	-3.03135	-2.16713
0.8507	-4.34858	-19.398	3.05325	0.44568	-47.0693	-0.705154	-0.303135	-16.8254
0.8513	-7.09424	-18.7981	4.89418	-0.778598	-50.1365	0.519587	4.92595	-21.4004
0.8520	-7.39844	-16.9697	-23.1688	-0.166459	-53.7824	0.828866	5.22908	-12.8523
0.8527	-5.56931	-17.8839	-32.9572	-0.472529	-93.772	-2.2268	4.54703	-8.57822
0.8533	-5.56931	-21.5407	-14.3233	-2.91035	-122.766	-3.14227	5.22908	-14.0713
0.8540	-5.56931	-24.5975	20.1604	-2.60965	-103.842	-0.395876	3.33449	-12.8523
0.8547	-4.65279	-24.2832	61.3345	0.44568	-80.6543	0.519587	1.21254	-2.78416
0.8553	-4.04048	-19.7123	92.4956	1.35852	-72.7066	-1.91753	1.81881	9.12001
0.8560	-4.34858	-14.5128	86.9728	-0.778598	-59.8976	-4.97319	-0.303135	18.2701
0.8567	-5.87351	-13.9129	38.1657	-3.52249	-47.9952	-5.57938	-2.72822	18.5862
0.8573	-6.17772	-12.9987	-18.3195	-4.74139	-44.33	-4.66392	0.303135	17.9691
0.8580	-5.2612	-7.19927	-45.7539	-4.74139	-39.4494	-5.88866	1.21254	24.0792
0.8587	-6.48193	-2.6283	-47.5948	-3.52249	-32.7363	-8.32577	-2.12195	19.8052
0.8593	-9.23148	-1.9998	-36.5941	-4.44069	-28.4538	-8.32577	-1.81881	5.76396
0.8600	-11.0606	-1.39986	-21.6422	-5.96567	-23.5732	-7.41031	-0.606271	7.901
0.8607	-12.8937	-1.39986	-6.37591	-4.44069	-16.5514	-6.80412	-3.03135	22.2432
0.8613	-11.9771	-0.485665	21.6871	-0.778598	-9.5296	-5.88866	-1.81881	24.6812
0.8620	-9.23148	3.48536	44.2722	0.139611	-4.95771	-5.88866	1.51568	20.1062
0.8627	-9.83989	3.17111	29.0059	-1.0793	-2.21843	-6.49484	0.909406	21.3252
0.8633	-11.6729	-1.71411	14.3682	-0.778598	1.4468	-7.41031	-0.606271	19.8052
0.8640	-8.92337	-1.71411	47.6397	-1.0793	4.80338	-8.32577	0	9.72199
0.8647	-6.17772	0.428528	83.3358	-2.60965	9.08591	-6.49484	-0.303135	1.4899
0.8653	-5.87351	-1.39986	77.813	-3.21642	16.0884	-4.05773	-1.81881	-0.346139
0.8660	-5.2612	-1.9998	58.5955	-3.21642	20.6796	-4.97319	-2.72822	0.571882
0.8667	-5.2612	-0.485665	42.4312	-4.13462	22.2036	-6.19794	-3.03135	2.40792
0.8673	-4.957	-1.71411	26.5813	-3.52249	24.3448	-4.97319	-1.21254	6.36594
0.8680	-2.51555	-2.6283	24.426	-1.69144	27.9908	-4.97319	-0.303135	6.98297
0.8687	-2.81975	-0.485665	29.3202	1.05245	31.656	-5.88866	-2.42508	2.70891
0.8693	-4.04048	0.428528	21.3728	3.80171	35.3212	-6.80412	-3.33449	2.10693
0.8700	-0.686413	-1.39986	7.04942	3.80171	39.8931	-6.80412	-2.12195	7.901
0.8707	2.97576	-1.71411	-8.53115	1.35852	46.9149	-4.97319	-3.03135	11.257
0.8713	2.97576	-2.31405	-28.3773	-1.38537	51.7955	-4.97319	-3.94076	9.421
0.8720	2.67155	-5.05663	-32.9572	-2.60965	50.2715	-6.80412	-3.33449	5.46297
0.8727	3.28386	-5.97082	-13.111	-0.778598	46.3169	-4.36701	-3.03135	2.40792
0.8733	1.75503	-4.74237	0	2.8835	45.391	-2.2268	-0.909406	3.62693
0.8740	0.53431	-6.88501	-6.1065	3.80171	46.6063	-5.88866	2.42508	5.76396
0.8747	1.75503	-9.34191	-6.69022	0.139611	47.2236	-7.71958	0.606271	-1.56515
0.8753	1.45083	-7.48495	-7.31883	-1.0793	45.0823	-4.05773	-4.54703	-14.0713
0.8760	-0.686413	-7.19927	-21.0585	-0.166459	42.0344	-4.05773	-4.2439	-17.7434
0.8767	-0.686413	-8.7134	-27.4344	-0.472529	42.9604	-5.57938	-0.606271	-15.2903
0.8773	0.230104	-6.57076	-25.0097	1.05245	44.4843	-4.97319	-3.03135	-19.2634
0.8780	0.230104	-5.05663	-22.8994	3.18957	42.9604	-5.28247	-10.9887	-28.7295
0.8787	-0.0741014	-8.7134	-6.37591	1.35852	41.4171	-6.49484	-16.142	-29.9485
0.8793	-0.686413	-10.5418	6.1065	0.75175	40.8191	-5.88866	-14.02	-20.4824
0.8800	-0.686413	-9.02765	4.26557	1.97066	40.5104	-6.80412	-7.65417	-14.6883
0.8807	-0.686413	-8.7134	50.3787	0.44568	41.7257	-9.24123	-2.72822	-14.0713
0.8813	-0.686413	-9.02765	115.979	-0.472529	41.7257	-9.85979	-5.1533	-5.83921
0.8820	-0.990619	-9.34191	77.813	0.75175	39.8931	-8.63505	-10.3824	3.32594
0.8827	0.230104	-9.94184	-25.6383	-0.472529	38.6778	-6.80412	-10.0793	-1.56515
0.8833	2.36735	-9.62759	-54.0156	-1.38537	36.8452	-4.97319	-5.75957	-4.30416
0.8840	1.14662	-9.02765	-23.7974	-0.778598	35.0126	-5.57938	-5.75957	5.76396
0.8847	-2.81975	-9.94184	-12.213	-2.91035	34.7039	-5.88866	-5.75957	8.81902
0.8853	-3.73627	-9.02765	-10.9558	-3.52249	32.8713	-4.05773	-1.81881	2.70891
0.8860	-3.43207	-6.57076	-3.63696	0.139611	30.132	-4.05773	0.606271	4.54495
0.8867	-5.2612	-7.48495	2.15524	-0.472529	30.7493	-5.88866	-0.303135	7.901
0.8873	-5.2612	-8.7134	13.7396	-3.82855	32.8713	-4.97319	-0.303135	6.06495
0.8880	-3.43207	-6.88501	21.0585	-2.60965	33.18	-3.14227	-0.909406	6.06495
0.8887	-0.990619	-4.74237	16.4786	-0.778598	32.8713	-2.53608	-3.03135	6.06495
0.8893	1.14662	-5.97082	14.952	-1.69144	35.3212	-3.74845	-3.33449	0.571882
0.8900	0.842416	-6.28507	11.0007	-1.99751	36.2279	-4.97319	-1.51568	-1.86614
0.8907	-1.90714	-3.82818	-5.47789	-2.30358	28.6081	-4.66392	0.303135	2.70891
0.8913	-1.59903	-1.9998	-8.53115	-0.778598	19.445	-4.05773	-0.303135	6.36594
0.8920	0.53431	-3.22824	12.213	1.35852	17.0144	-3.14227	-2.72822	6.98297
0.8927	-0.990619	-5.37088	29.6345	0.44568	11.5165	-1.31134	-3.63762	8.20199
0.8933	-5.2612	-4.14244	28.6916	-2.30358	3.58807	-1.31134	-1.81881	10.64
0.8940	-5.87351	-2.6283	22.0014	-1.0793	0.231488	-3.14227	-1.81881	10.956
0.8947	-3.43207	-5.05663	17.6909	0.44568	-12.9055	-1.31134	-4.2439	7.901
0.8953	-1.29483	-5.37088	9.47406	0.139611	-26.9298	0.828866	-5.1533	1.4899
0.8960	-1.59903	-1.39986	-3.36756	1.35852	-12.9055	-1.00206	-4.2439	-9.19525
0.8967	-2.21134	0.142843	-12.7967	2.27673	7.85131	-1.62062	-3.33449	-17.1263
0.8973	0.230104	-1.0856	-14.3233	0.139611	9.08591	0.828866	-2.12195	-16.8254
0.8980	2.97576	1.34272	-3.36756	-1.99751	7.54266	1.43505	-2.12195	-13.4693
0.8987	2.36735	3.17111	17.1072	-2.30358	9.08591	-0.0865979	-3.63762	-13.7703
0.8993	1.45083	1.34272	20.7442	-2.60965	12.1338	0.828866	-3.94076	-14.9893
0.9000	2.67155	2.25691	4.26557	-2.60965	26.1582	1.43505	-1.21254	-17.7434
0.9007	2.97576	5.31375	2.46954	-1.69144	45.6996	0.519587	1.51568	-22.0024
0.9013	1.14662	4.99949	18.6338	-2.60965	76.5261	-0.0865979	0.606271	-22.9204
0.9020	1.14662	4.71381	19.2175	-4.44069	122.592	-1.31134	-1.51568	-15.9073
0.9027	2.97576	6.85645	4.89418	-5.04746	151.586	-2.53608	-1.21254	-1.56515
0.9033	4.19648	8.97052	-1.84093	-3.21642	163.489	-0.705154	-0.303135	11.257
0.9040	3.89228	11.1132	-3.95127	-2.60965	193.1	-0.0865979	-3.63762	10.64
0.9047	3.89228	10.5132	-7.00452	-3.82855	229.405	-3.14227	-8.56357	2.40792
0.9053	3.89228	6.22794	-5.47789	-3.52249	242.233	-1.31134	-11.2918	-0.647129
0.9060	3.89228	5.628	-0.898015	-1.69144	216.287	4.49072	-10.9887	0.270891
0.9067	2.06314	9.28477	1.21232	-1.69144	165.938	2.65979	-6.36584	-2.78416
0.9073	0.53431	9.59902	2.73895	-1.0793	136.945	-2.83299	2.72822	-6.1402
0.9080	1.14662	8.05632	3.68186	0.139611	64.0065	-1.31134	10.9887	-4.92119
0.9087	1.45083	8.37058	-0.898015	-1.69144	-168.832	2.04124	13.4137	-4.00317
0.9093	1.14662	7.14213	-8.21684	-3.82855	-403.522	0.519587	11.2918	-5.52317
0.9100	4.19648	5.94225	-11.5844	-2.60965	-392.237	-0.705154	6.44163	-6.1402
0.9107	5.72531	7.14213	-14.3233	-4.13462	-238.414	0.519587	0.303135	-4.00317
0.9113	0.842416	5.94225	-21.9565	-6.27174	-162.736	0.519587	-2.42508	-1.86614
0.9120	-2.51555	2.88542	-26.5364	-2.91035	-131.312	0.828866	-1.81881	-0.030099
0.9127	-0.686413	2.25691	-24.6954	-1.69144	-72.7066	2.35051	-3.03135	2.40792
0.9133	-1.59903	4.0853	-31.1162	-3.82855	-37.9255	2.65979	-6.36584	0.872872
0.9140	-2.51555	4.0853	-46.6968	-1.69144	-35.4756	2.35051	-7.9573	-1.26416
0.9147	-0.0741014	3.17111	-55.8566	-1.69144	-23.2646	3.26598	-8.26044	-0.948119
0.9153	-0.0741014	2.57117	-59.4935	-4.44069	2.97077	5.70309	-7.35103	-1.26416
0.9160	-2.21134	2.88542	-63.4448	-1.99751	48.1303	5.70309	-6.06271	-0.030099
0.9167	0.842416	3.17111	-63.4448	0.139611	110.092	1.74433	-5.75957	5.46297
0.9173	3.28386	2.88542	-59.4935	-2.60965	127.781	0.519587	-5.75957	6.36594
0.9180	0.230104	2.25691	-64.9714	-1.69144	79.2654	2.65979	-3.94076	0.571882
0.9187	-0.686413	2.57117	-87.8708	1.66459	39.2951	3.26598	-1.51568	-1.26416
0.9193	1.14662	4.0853	-103.451	0.139611	57.602	1.43505	-0.303135	-0.948119
0.9200	-0.378307	6.85645	-79.654	-1.69144	103.687	1.43505	0.606271	-3.08515
0.9207	-0.990619	6.85645	-28.3773	-1.0793	130.849	1.12577	-0.303135	-1.26416
0.9213	0.230104	5.31375	3.05325	-1.38537	65.2218	0.210309	-2.12195	3.62693
0.9220	0.53431	5.94225	-12.7967	-0.472529	-115.744	2.35051	-1.21254	3.92792
0.9227	1.75503	4.99949	-64.0734	1.05245	-256.122	5.09691	2.42508	0.571882
0.9233	3.89228	1.97123	-117.191	1.05245	-232.009	3.26598	3.63762	-1.56515
0.9240	2.06314	1.97123	-131.2	1.66459	-154.19	1.43505	2.42508	-1.26416
0.9247	-0.686413	3.48536	-95.5039	1.97066	-130.386	3.57526	1.51568	3.32594
0.9253	0.230104	3.17111	-51.5461	-0.778598	-116.342	4.78763	-0.303135	10.038
0.9260	0.842416	3.17111	-33.2715	-2.30358	-94.6787	4.49072	-3.63762	13.3941
0.9267	-1.59903	2.88542	-13.111	-0.166459	-87.3675	5.70309	-3.03135	13.996
0.9273	-2.81975	-0.485665	32.0592	1.05245	-79.1111	4.18144	-0.909406	14.3121
0.9280	-1.59903	-4.14244	67.1716	0.139611	-73.3239	0.210309	-1.51568	12.777
0.9287	-1.59903	-7.48495	78.756	0.44568	-78.2044	-1.00206	-3.03135	10.64
0.9293	-0.990619	-9.02765	106.19	-0.166459	-68.1347	0.210309	-1.81881	6.68198
0.9300	-0.686413	-8.42771	151.675	-1.69144	-44.6386	-0.0865979	0.606271	1.79089
0.9307	-2.81975	-8.7134	174.574	-1.69144	-26.3318	-0.395876	2.72822	-0.948119
0.9313	-4.65279	-11.456	172.15	-0.472529	-5.88366	0.519587	3.94076	-1.26416
0.9320	-4.04048	-13.2844	154.728	-0.778598	10.3012	0.828866	1.51568	-2.16713
0.9327	-3.73627	-13.2844	122.4	-1.38537	6.94465	1.74433	-0.606271	-2.78416
0.9333	-3.43207	-13.2844	95.2345	-1.69144	-3.12509	2.65979	0	-1.86614
0.9340	0.230104	-12.3702	79.654	-1.69144	-10.1469	2.65979	-0.606271	-0.948119
0.9347	3.58807	-9.62759	56.7546	-1.69144	-19.6186	1.43505	-3.33449	0.872872
0.9353	1.14662	-8.11346	44.2722	-0.472529	-27.2384	0.519587	-2.42508	2.70891
0.9360	-1.29483	-10.2561	62.2774	1.97066	-24.1905	2.35051	0.606271	1.79089
0.9367	0.53431	-12.3702	73.2332	3.18957	-11.6709	3.26598	-0.606271	-0.030099
0.9373	1.75503	-10.2561	53.1176	1.05245	-0.385814	1.74433	-3.03135	0.571882
0.9380	0.230104	-7.19927	34.7981	-1.0793	3.89672	0.828866	-2.12195	2.10693
0.9387	0.230104	-8.42771	30.5325	-1.0793	5.11203	1.43505	-1.21254	3.0099
0.9393	0.230104	-7.79921	17.4215	-1.69144	5.11203	0.519587	-3.03135	2.10693
0.9400	-0.686413	-4.74237	-4.26557	-2.30358	2.97077	-1.00206	-3.03135	-2.16713
0.9407	-1.29483	-4.74237	-23.7974	-0.778598	5.71004	0.519587	-0.303135	-5.52317
0.9413	-1.29483	-5.65657	-39.9617	-1.38537	9.08591	1.12577	0.303135	-5.22218
0.9420	-4.34858	-5.05663	-50.3338	-2.60965	8.15996	0.828866	-1.81881	-7.6602
0.9427	-6.17772	-6.28507	-64.9714	1.35852	9.99257	1.43505	-3.63762	-9.49624
0.9433	-5.56931	-6.28507	-97.9286	4.10778	14.8731	0.828866	-3.94076	-2.16713
0.9440	-6.17772	-3.22824	-130.302	0.75175	15.4904	0.210309	-2.12195	7.28397
0.9447	-5.2612	-5.37088	-135.196	-1.0793	14.2558	2.04124	-1.21254	7.901
0.9453	-3.12786	-9.34191	-105.292	-1.38537	13.6578	2.65979	-1.51568	9.72199
0.9460	-4.65279	-7.19927	-59.4935	-1.99751	12.4425	1.43505	-1.21254	15.2151
0.9467	-9.53569	-6.88501	-34.7981	-0.166459	13.9665	0.519587	0.303135	10.956
0.9473	-10.4522	-12.3702	-36.3247	-0.166459	15.1818	-1.31134	0.303135	3.92792
0.9480	-8.92337	-12.9987	-31.1162	-2.60965	11.5165	-2.2268	-0.303135	4.84594
0.9487	-8.31496	-9.62759	-14.952	-1.0793	12.4425	-1.00206	-0.606271	3.32594
0.9493	-6.17772	-8.7134	-1.84093	0.139611	18.847	-1.91753	-1.51568	-4.30416
0.9500	-5.87351	-9.34191	13.1559	-2.91035	19.445	-4.36701	-1.51568	-8.87921
0.9507	-8.31496	-8.7134	21.6871	-2.60965	18.847	-2.2268	-1.21254	-9.79723
0.9513	-8.01076	-9.34191	8.84545	-0.472529	24.0362	-0.395876	-1.51568	-13.1533
0.9520	-4.957	-9.62759	-14.009	-1.99751	26.7755	-3.14227	-1.51568	-16.5093
0.9527	-4.04048	-9.62759	-25.324	-2.30358	29.5147	-5.28247	-1.21254	-14.9893
0.9533	-3.73627	-9.62759	-0.898015	-0.778598	37.1539	-3.14227	-2.42508	-3.08515
0.9540	-5.2612	-9.62759	51.2767	-2.91035	39.5845	-2.53608	-3.94076	10.038
0.9547	-8.92337	-10.5418	77.813	-2.60965	35.3212	-4.05773	-3.33449	12.1751
0.9553	-8.61917	-12.3702	79.654	0.139611	32.582	-3.74845	-1.51568	12.476
0.9560	-5.2612	-12.6844	97.9735	-1.0793	25.2515	-2.53608	0	21.6262
0.9567	-5.2612	-12.9987	104.709	-2.91035	11.8252	-3.74845	-0.303135	24.6812
0.9573	-5.2612	-13.2844	83.3358	-2.60965	4.18608	-4.97319	-2.42508	15.2151
0.9580	-2.51555	-12.9987	66.8572	-2.91035	5.71004	-3.74845	-2.12195	6.98297
0.9587	-1.90714	-13.2844	45.4845	-2.60965	9.08591	-3.14227	1.21254	3.32594
0.9593	-4.34858	-13.9129	18.3195	-3.21642	8.15996	-4.97319	2.12195	-2.16713
0.9600	-3.43207	-12.3702	19.8461	-5.96567	-1.00312	-4.97319	1.51568	-9.49624
0.9607	-1.59903	-11.7702	19.5318	-5.35353	-8.31428	-4.05773	1.81881	-18.3454
0.9613	-0.378307	-12.3702	-9.15976	-2.60965	-2.21843	-4.97319	1.51568	-25.6745
0.9620	2.06314	-11.456	-16.7929	-2.30358	6.63599	-5.88866	0.303135	-28.4135
0.9627	3.28386	-10.5418	4.26557	-1.69144	9.08591	-5.28247	0.303135	-28.7295
0.9633	1.75503	-12.0845	9.47406	0.75175	12.4425	-6.19794	0.606271	-29.3315
0.9640	2.06314	-12.0845	-7.00452	0.139611	15.1818	-5.57938	-0.303135	-27.8115
0.9647	4.80879	-11.7702	-32.6429	1.05245	12.7318	-3.14227	0.303135	-19.2634
0.9653	4.80879	-12.9987	-54.9136	3.18957	11.2079	-3.14227	0.909406	-8.57822
0.9660	2.06314	-12.0845	-60.3915	0.139611	13.3492	-5.57938	-0.909406	-10.4143
0.9667	1.45083	-9.62759	-61.3345	-2.30358	13.3492	-4.97319	-1.81881	-25.3735
0.9673	2.36735	-9.62759	-60.3915	0.44568	9.99257	-1.00206	-0.606271	-29.9485
0.9680	2.67155	-9.62759	-37.8513	1.05245	9.68392	0.519587	1.51568	-14.9893
0.9687	2.06314	-6.28507	-5.47789	-0.778598	11.5165	-1.62062	2.42508	8.81902
0.9693	2.36735	-4.45669	17.1072	0.139611	11.5165	-2.2268	2.42508	36.2844
0.9700	3.28386	-6.88501	35.6961	-0.166459	12.4425	-0.395876	1.81881	55.5026
0.9707	2.67155	-8.42771	52.8033	-1.38537	17.0144	-0.395876	1.51568	46.0515
0.9713	1.14662	-5.37088	66.5429	0.139611	17.921	-1.91753	-0.606271	23.7632
0.9720	1.45083	-4.14244	76.017	0.75175	15.1818	0.210309	-2.72822	18.8871
0.9727	2.67155	-6.28507	65.9143	0.44568	16.3971	2.65979	-0.909406	21.9422
0.9733	2.97576	-4.45669	43.0598	0.75175	17.921	0.828866	0.909406	15.8321
0.9740	3.89228	-2.31405	38.1657	0.44568	13.3492	-0.395876	-0.606271	10.339
0.9747	5.113	-5.97082	46.6968	1.05245	11.2079	2.35051	-1.21254	10.038
0.9753	4.19648	-5.97082	35.1124	1.97066	14.2558	3.26598	-0.909406	2.40792
0.9760	3.58807	-0.171411	0.314305	2.5828	12.7318	1.12577	-3.03135	-8.27723
0.9767	4.19648	0.428528	-33.5409	4.10778	8.77726	0.519587	-2.42508	-9.49624
0.9773	4.80879	-0.485665	-57.6526	6.24489	7.2533	2.35051	0.303135	-6.75723
0.9780	4.50459	2.25691	-75.9721	5.32668	5.11203	3.26598	-1.21254	-2.16713
0.9787	4.80879	1.65697	-85.1319	3.18957	3.27942	3.26598	-4.54703	4.54495
0.9793	5.41721	-0.485665	-79.654	1.97066	2.35346	3.26598	-3.94076	5.14693
0.9800	6.33372	1.34272	-68.6533	0.44568	-1.29248	2.65979	-2.12195	-0.346139
0.9807	6.33372	2.25691	-72.3351	0.75175	-4.05104	3.57526	0	-0.030099
0.9813	2.97576	0.742782	-98.8715	2.8835	-2.21843	8.15257	1.51568	3.0099
0.9820	-0.378307	1.34272	-124.196	2.8835	-2.21843	12.4206	0.606271	1.79089
0.9827	0.230104	2.25691	-115.664	0.75175	-8.00563	11.5051	-1.21254	0.571882
0.9833	3.28386	1.97123	-81.45	-1.0793	-11.3622	7.8433	-1.21254	-1.56515
0.9840	3.58807	3.17111	-52.1747	-1.69144	-9.5296	5.09691	-0.303135	-4.92119
0.9847	2.97576	4.0853	-19.2175	-0.472529	-7.09897	0.519587	0.909406	-2.78416
0.9853	2.97576	4.99949	28.1079	-0.778598	-8.00563	-6.49484	0.303135	-0.346139
0.9860	0.230104	5.31375	59.5384	-1.69144	-10.4555	-11.6907	-0.606271	-6.1402
0.9867	-1.90714	3.48536	61.6488	-0.166459	-12.2882	-17.1835	2.42508	-12.8523
0.9873	0.842416	1.65697	70.8085	1.35852	-13.1948	-26.9443	2.42508	-10.7153
0.9880	1.75503	1.97123	99.5001	0.139611	-14.1208	-38.2392	-5.45644	-4.00317
0.9887	-1.59903	1.34272	115.664	-1.69144	-14.1208	-45.5629	-8.26044	-1.26416
0.9893	-2.81975	1.34272	98.8715	-0.472529	-14.1208	-44.3381	-1.51568	-4.92119
0.9900	-2.81975	2.25691	67.7553	1.66459	-15.9534	-33.3526	-2.12195	-8.57822
0.9907	-4.65279	1.05704	45.7988	2.27673	-17.4774	-22.367	-14.02	-7.97624
0.9913	-3.12786	-1.39986	32.6429	-0.778598	-15.0274	-17.1835	-20.1585	-6.44119
0.9920	-0.990619	-1.0856	21.3728	-3.21642	-12.5968	-9.85979	-13.7169	-5.52317
0.9927	-4.957	-0.485665	13.7396	-2.60965	-13.1948	1.74433	-5.75957	-4.6202
0.9933	-7.70265	-1.39986	9.15976	-1.0793	-12.2882	7.53402	-4.85017	-4.92119
0.9940	-3.43207	-0.77135	3.68186	0.139611	-9.83825	8.15257	-5.75957	-7.05822
0.9947	-1.59903	-0.171411	1.84093	0.44568	-10.1469	11.1959	-4.54703	-7.05822
0.9953	-5.2612	-1.39986	-1.84093	-1.99751	-9.5296	13.9423	-3.33449	-4.92119
0.9960	-5.2612	-1.9998	-13.111	-1.99751	-8.62294	14.2515	-3.94076	-3.38614
0.9967	-1.29483	-1.39986	-14.3233	0.139611	-10.1469	15.7732	-4.54703	-4.00317
0.9973	-0.686413	-1.39986	-7.63313	-0.472529	-8.93159	16.6887	-4.54703	-7.05822
0.9980	-3.12786	-2.6283	-19.2175	-1.69144	-6.48167	17.9134	-2.72822	-11.6333
0.9987	-2.81975	-3.22824	-41.4883	0.75175	-7.71627	20.9691	0.606271	-13.7703
0.9993	-0.990619	-1.71411	-53.7013	2.8835	-9.24024	18.2227	2.12195	-10.4143
1.0000	-0.990619	1.05704	-62.5468	2.8835	-6.79032	9.67422	0.909406	-7.05822
1.0007	-0.686413	0.428528	-70.1799	2.5828	-4.35969	6.61855	-1.21254	-8.57822
1.0013	-0.0741014	-2.31405	-72.9189	1.05245	-1.90978	7.8433	-3.03135	-8.57822
1.0020	-2.81975	-1.39986	-74.1312	-0.778598	-1.29248	5.40618	-0.303135	-4.00317
1.0027	-5.56931	1.34272	-57.6526	-0.778598	-1.90978	3.57526	3.94076	-1.56515
1.0033	-3.43207	1.34272	-20.1155	-1.69144	1.4468	5.09691	5.22908	-1.56515
1.0040	-2.21134	-0.171411	6.42081	-2.30358	4.80338	5.09691	5.22908	1.18891
1.0047	-6.48193	0.428528	25.9526	-1.69144	0.540139	4.78763	6.74476	3.0099
1.0053	-7.39844	1.34272	60.4364	-2.60965	0.231488	5.40618	7.0479	2.40792
1.0060	-1.59903	-0.485665	79.654	-3.82855	5.42068	5.70309	7.0479	3.32594
1.0067	0.230104	-1.39986	65.0163	-3.52249	6.01869	5.09691	2.72822	4.54495
1.0073	-3.43207	-2.31405	47.9091	-1.69144	4.80338	3.57526	-8.56357	3.62693
1.0080	-2.51555	-3.82818	38.48	-2.30358	7.54266	2.9567	-11.5949	2.10693
1.0087	1.14662	-2.6283	27.4793	-2.60965	6.94465	5.09691	1.81881	-0.647129
1.0093	1.45083	0.428528	16.4786	-1.38537	3.27942	6.01237	11.2918	-3.08515
1.0100	1.45083	1.05704	-3.05325	-1.0793	3.58807	4.18144	5.83536	-4.00317
1.0107	2.36735	-0.171411	-27.4344	-1.69144	3.58807	1.74433	-2.12195	-4.92119
1.0113	1.45083	2.25691	-38.1208	-1.38537	3.27942	0.210309	-5.75957	-4.00317
1.0120	0.230104	5.31375	-42.1169	-1.69144	6.01869	-1.31134	-7.65417	-2.16713
1.0127	0.230104	4.99949	-46.9662	-2.30358	7.85131	0.519587	-8.86671	-3.38614
1.0133	1.14662	2.25691	-41.174	-1.0793	6.01869	4.18144	-12.8075	-2.48317
1.0140	1.45083	0.742782	-33.5409	-0.472529	4.18608	3.57526	-12.2012	1.18891
1.0147	1.75503	1.34272	-33.5409	-1.69144	2.35346	-0.395876	-5.1533	1.18891
1.0153	2.97576	0.142843	-27.4344	-2.60965	-0.385814	-1.00206	-4.54703	-0.346139
1.0160	3.58807	-2.6283	-15.5357	-1.99751	-0.385814	-0.0865979	-10.3824	0.270891
1.0167	1.14662	-4.14244	-12.7967	-2.30358	0.231488	-1.91753	-8.56357	-2.78416
1.0173	0.230104	-4.14244	-15.2663	-1.69144	0.540139	-2.2268	-4.85017	-6.1402
1.0180	2.67155	-4.45669	-13.7396	-0.778598	1.4468	-1.62062	-5.45644	-4.92119
1.0187	2.97576	-5.97082	-8.53115	-1.69144	1.4468	-6.49484	-0.606271	-3.08515
1.0193	1.14662	-6.88501	-5.16359	-2.60965	0.540139	-11.6907	5.53222	-3.08515
1.0200	2.06314	-5.05663	-7.63313	-1.69144	2.97077	-9.55051	7.0479	-0.948119
1.0207	2.06314	-3.22824	-10.0578	-0.166459	6.63599	-5.88866	14.3231	-1.26416
1.0213	0.230104	-5.97082	-5.47789	1.05245	6.63599	-6.19794	21.9773	-2.78416
1.0220	1.14662	-8.7134	-2.42464	0.44568	5.42068	-7.41031	19.5522	-0.647129
1.0227	0.53431	-5.37088	-7.31883	-1.38537	5.11203	-5.88866	19.8554	0.270891
1.0233	-0.686413	-4.14244	-10.9558	-1.99751	6.01869	-0.395876	20.1585	-1.86614
1.0240	1.14662	-6.57076	-9.15976	-1.69144	7.85131	3.87216	-2.72822	-3.08515
1.0247	0.53431	-6.57076	-4.57988	-1.69144	7.85131	0.828866	-29.9346	-6.75723
1.0253	-3.43207	-5.05663	-2.73895	-0.472529	4.18608	-1.31134	-28.9494	-14.0713
1.0260	-2.51555	-5.05663	-7.00452	-0.778598	0.540139	2.35051	-13.4137	-15.9073
1.0267	-0.990619	-3.22824	-12.213	-2.91035	-0.694465	2.04124	-8.26044	-10.4143
1.0273	-3.43207	-1.71411	-15.85	-3.21642	-3.12509	-0.395876	-10.0793	-6.75723
1.0280	-3.12786	-4.14244	-23.4831	0.139611	-4.35969	4.18144	-9.47298	-7.6602
1.0287	1.14662	-5.05663	-29.2753	1.05245	-3.12509	6.01237	-5.45644	-7.35921
1.0293	1.45083	-2.6283	-23.1688	-0.778598	-4.95771	1.74433	0.606271	-1.86614
1.0300	0.842416	-1.9998	-9.15976	-0.472529	-7.71627	2.35051	0.909406	4.84594
1.0307	0.230104	-3.5425	0.314305	1.35852	-5.57501	3.57526	-1.51568	6.98297
1.0313	-2.51555	-4.74237	-0.898015	-0.166459	-3.74239	-1.00206	0.303135	1.4899
1.0320	-3.73627	-5.97082	-10.9558	-2.91035	-4.95771	-4.05773	0	-4.00317
1.0327	-3.43207	-6.28507	-19.2175	-2.60965	-2.81644	-3.74845	-9.47298	-1.56515
1.0333	-3.73627	-5.05663	-19.5318	-1.69144	0.540139	-3.74845	-18.6428	2.70891
1.0340	-4.65279	-3.5425	-21.3728	-1.69144	-0.385814	-1.00206	-15.2326	0.571882
1.0347	-5.2612	-1.71411	-27.4344	-2.60965	-1.60113	2.35051	-0.909406	-4.00317
1.0353	-5.56931	-2.31405	-28.961	-3.21642	-1.29248	0.828866	11.5949	-4.00317
1.0360	-3.73627	-4.14244	-29.2753	-2.60965	-2.81644	-0.705154	11.5949	-2.48317
1.0367	-3.12786	-3.22824	-26.5364	0.139611	-4.95771	0.828866	11.5949	-4.00317
1.0373	-5.2612	-1.39986	-4.57988	-0.166459	-6.79032	0.519587	24.4024	-3.08515
1.0380	-4.65279	-3.5425	22.8994	-3.52249	-7.71627	-3.14227	36.3005	4.22891
1.0387	-3.43207	-5.37088	28.3773	-2.91035	-4.95771	-4.66392	35.3911	9.421
1.0393	-4.957	-4.74237	17.6909	-1.69144	-1.29248	-5.28247	22.5836	9.421
1.0400	-4.957	-5.97082	12.5273	-3.52249	-1.90978	-6.49484	-4.2439	8.81902
1.0407	-4.04048	-6.88501	8.26174	-5.35353	-3.74239	-4.66392	-26.8275	7.28397
1.0413	-4.957	-5.05663	-7.31883	-4.44069	-5.88366	-2.2268	-23.7961	3.32594
1.0420	-2.51555	-5.65657	-20.7442	-4.44069	-9.83825	-3.14227	-15.2326	2.70891
1.0427	1.14662	-6.88501	-15.2663	-4.44069	-10.4555	-5.88866	-20.4616	5.76396
1.0433	-0.686413	-5.37088	-1.84093	-4.74139	-7.71627	-5.88866	-21.9773	6.06495
1.0440	-1.59903	-5.97082	4.57988	-5.96567	-8.00563	-3.14227	-12.2012	6.68198
1.0447	1.45083	-6.88501	4.57988	-5.35353	-9.5296	2.04124	-2.42508	8.20199
1.0453	1.75503	-3.82818	-4.84928	-2.60965	-6.48167	4.18144	1.21254	6.06495
1.0460	-0.990619	-1.9998	-15.5357	-0.472529	-3.12509	-0.395876	-5.75957	3.32594
1.0467	-0.686413	-3.22824	-16.4786	0.44568	-1.00312	-4.05773	-19.5522	3.0099
1.0473	-0.0741014	-2.6283	-19.2175	-0.778598	2.35346	-1.31134	-22.2804	2.40792
1.0480	-0.686413	-2.31405	-28.063	-1.69144	3.27942	0.210309	-18.0366	0.270891
1.0487	0.230104	-5.05663	-36.3247	-0.778598	-0.694465	-0.705154	-18.6428	-3.08515
1.0493	1.75503	-5.65657	-48.8071	0.44568	-5.26636	0.828866	-17.6576	-7.6602
1.0500	2.06314	-3.22824	-46.6968	0.75175	-6.79032	2.04124	-7.35103	-7.6602
1.0507	3.89228	-4.14244	-15.5357	2.27673	-6.79032	-0.705154	1.51568	-1.56515
